4.84772	
4.84619	
4.84314	
4.84467	
4.84161	
4.83856	
4.83704	
4.84772	
4.84314	
4.84009	
4.84009	
4.84009	
4.84009	
4.83856	
4.84314	
4.83856	
4.83856	
4.84161	
4.83856	
4.83704	
4.84009	
4.83856	
4.83856	
4.84161	
4.84161	
4.83856	
4.83856	
4.83398	
4.83398	
4.84467	
4.84009	
4.83704	
4.83551	
4.83551	
4.84161	
4.84314	
4.84161	
4.84161	
4.84314	
4.83704	
4.83246	
4.83551	
4.83704	
4.83704	
4.83398	
4.83856	
4.83856	
4.83551	
4.83246	
4.83093	
4.83246	
4.83398	
4.83704	
4.83856	
4.83398	
4.82941	
4.83093	
4.84161	
4.83551	
4.84009	
4.85077	
4.84924	
4.85687	
4.84467	
4.84314	
4.84467	
4.84161	
4.84314	
4.84314	
4.84314	
4.84009	
4.84619	
4.84924	
4.84619	
4.83856	
4.84161	
4.84009	
4.83856	
4.83551	
4.83856	
4.83398	
4.83856	
4.83398	
4.83246	
4.83398	
4.84009	
4.84009	
4.84161	
4.83856	
4.83398	
4.83551	
4.83704	
4.84009	
4.83704	
4.84009	
4.83551	
4.84161	
4.83704	
4.83551	
4.83856	
4.83398	
4.83398	
4.83551	
4.83398	
4.82941	
4.82941	
4.83246	
4.84467	
4.83856	
4.84161	
4.84619	
4.83398	
4.83856	
4.83704	
4.83246	
4.83093	
4.82788	
4.84161	
4.83856	
4.83704	
4.84467	
4.84314	
4.84009	
4.84467	
4.84161	
4.83704	
4.83856	
4.83856	
4.83551	
4.83551	
4.83246	
4.83398	
4.83398	
4.83551	
4.83704	
4.83551	
4.83704	
4.83704	
4.83551	
4.83246	
4.83551	
4.83093	
4.83246	
4.83856	
4.84619	
4.83704	
4.84009	
4.83704	
4.83398	
4.83551	
4.83704	
4.83704	
4.82941	
4.82941	
4.83398	
4.84467	
4.84772	
4.84314	
4.83398	
4.83704	
4.83551	
4.83398	
4.83246	
4.83551	
4.83398	
4.83093	
4.83246	
4.83551	
4.83704	
4.83551	
4.83856	
4.83398	
4.83398	
4.84009	
4.83704	
4.83551	
4.83246	
4.83704	
4.83398	
4.83246	
4.83093	
4.83093	
4.82788	
4.83551	
4.83856	
4.83551	
4.84314	
4.84161	
4.84009	
4.83398	
4.83398	
4.83093	
4.82788	
4.82788	
4.82635	
4.82941	
4.84314	
4.84314	
4.84161	
4.84009	
4.83704	
4.83856	
4.83398	
4.83856	
4.83856	
4.83856	
4.83856	
4.84161	
4.83856	
4.83704	
4.83246	
4.83551	
4.83246	
4.83704	
4.84009	
4.83704	
4.84009	
4.83704	
4.84161	
4.83398	
4.83551	
4.83398	
4.82941	
4.83246	
4.82941	
4.83398	
4.82941	
4.83246	
4.82941	
4.83093	
4.83551	
4.83551	
4.83704	
4.83551	
4.83856	
4.84161	
4.83551	
4.83093	
4.83093	
4.82941	
4.82788	
4.84314	
4.83704	
4.83093	
4.83093	
4.83093	
4.82635	
4.82483	
4.83246	
4.84161	
4.84161	
4.83398	
4.83398	
4.83398	
4.82941	
4.82635	
4.82941	
4.83093	
4.84009	
4.83704	
4.83093	
4.83093	
4.83398	
4.84161	
4.84619	
4.84161	
4.84467	
4.84161	
4.84314	
4.83704	
4.83856	
4.83398	
4.83551	
4.84009	
4.83704	
4.83704	
4.83551	
4.83856	
4.83551	
4.83551	
4.83856	
4.84009	
4.83398	
4.84314	
4.84161	
4.84009	
4.83704	
4.83856	
4.83246	
4.83398	
4.83551	
4.83093	
4.83093	
4.82941	
4.83398	
4.83551	
4.83551	
4.83551	
4.83856	
4.83704	
4.83856	
4.83856	
4.83551	
4.83856	
4.83398	
4.83551	
4.83398	
4.83551	
4.83856	
4.83551	
4.83704	
4.83704	
4.83856	
4.83246	
4.83551	
4.83246	
4.83551	
4.83551	
4.84009	
4.83856	
4.84314	
4.84009	
4.84009	
4.84009	
4.83856	
4.83856	
4.83704	
4.83246	
4.83398	
4.83551	
4.83856	
4.83398	
4.83246	
4.83704	
4.83856	
4.83551	
4.83704	
4.83398	
4.83398	
4.83551	
4.83398	
4.83551	
4.83704	
4.83093	
4.83398	
4.83246	
4.83856	
4.83551	
4.83551	
4.84009	
4.83704	
4.83704	
4.83704	
4.83704	
4.83398	
4.83093	
4.83093	
4.83398	
4.83398	
4.83856	
4.83551	
4.83398	
4.83551	
4.83704	
4.84467	
4.84619	
4.84161	
4.83856	
4.84619	
4.84161	
4.84009	
4.83856	
4.83856	
4.83856	
4.83704	
4.83704	
4.83856	
4.83704	
4.83551	
4.83704	
4.83704	
4.83398	
4.83551	
4.84161	
4.83856	
4.83704	
4.84161	
4.84009	
4.84161	
4.83551	
4.83398	
4.83398	
4.83246	
4.82941	
4.83551	
4.83246	
4.83398	
4.83398	
4.83093	
4.82788	
4.82483	
4.82483	
4.82178	
4.82635	
4.82941	
4.84009	
4.83856	
4.83398	
4.83093	
4.83246	
4.83398	
4.84009	
4.84009	
4.83551	
4.83551	
4.83856	
4.84161	
4.84161	
4.84772	
4.84314	
4.84009	
4.84009	
4.84161	
4.84161	
4.84161	
4.83704	
4.84161	
4.84161	
4.84009	
4.84009	
4.84161	
4.84314	
4.84467	
4.84009	
4.84467	
4.84467	
4.84009	
4.83856	
4.84314	
4.84161	
4.84619	
4.84314	
4.84161	
4.84161	
4.84161	
4.84161	
4.84009	
4.84161	
4.84314	
4.84314	
4.84314	
4.84161	
4.84161	
4.84314	
4.84009	
4.84009	
4.84009	
4.84161	
4.84161	
4.84467	
4.84619	
4.84619	
4.84009	
4.84467	
4.83856	
4.84161	
4.84314	
4.84314	
4.84619	
4.84161	
4.83704	
4.83551	
4.83093	
4.82941	
4.83093	
4.83551	
4.83093	
4.83093	
4.83856	
4.84619	
4.84772	
4.84314	
4.84009	
4.84009	
4.83856	
4.83704	
4.83856	
4.84009	
4.83704	
4.83856	
4.84009	
4.83551	
4.83704	
4.83398	
4.83856	
4.83551	
4.83551	
4.83704	
4.83856	
4.83704	
4.83856	
4.83704	
4.83704	
4.83704	
4.83704	
4.83551	
4.83856	
4.83704	
4.83856	
4.83398	
4.83551	
4.83246	
4.83551	
4.83246	
4.83398	
4.83398	
4.83856	
4.84161	
4.84619	
4.83856	
4.83704	
4.83856	
4.83704	
4.83704	
4.83856	
4.83704	
4.83704	
4.83704	
4.83398	
4.83704	
4.83551	
4.83704	
4.83704	
4.83551	
4.83551	
4.83398	
4.83246	
4.82941	
4.83398	
4.83856	
4.83551	
4.84009	
4.84314	
4.83398	
4.83246	
4.83093	
4.83093	
4.83856	
4.83704	
4.83856	
4.83856	
4.83856	
4.84009	
4.84009	
4.83704	
4.83704	
4.83398	
4.83093	
4.83246	
4.83093	
4.82635	
4.82483	
4.8233	
4.83856	
4.84924	
4.84467	
4.84161	
4.83704	
4.84161	
4.83704	
4.84314	
4.84009	
4.83551	
4.83398	
4.83246	
4.83551	
4.83551	
4.83704	
4.83398	
4.83551	
4.83704	
4.83856	
4.83704	
4.83551	
4.83856	
4.83551	
4.83398	
4.83704	
4.84314	
4.84467	
4.84161	
4.83704	
4.83704	
4.84161	
4.84009	
4.83856	
4.83551	
4.83856	
4.84009	
4.84161	
4.84009	
4.83704	
4.83704	
4.83856	
4.83398	
4.83398	
4.84009	
4.84161	
4.84009	
4.84009	
4.83551	
4.83551	
4.84009	
4.84009	
4.83704	
4.83551	
4.83246	
4.83093	
4.83246	
4.83093	
4.83856	
4.84009	
4.84314	
4.84619	
4.83856	
4.84009	
4.83551	
4.83398	
4.83398	
4.83246	
4.83398	
4.82941	
4.83093	
4.83551	
4.83551	
4.83246	
4.83093	
4.84314	
4.84314	
4.83398	
4.83093	
4.82635	
4.82941	
4.82941	
4.84467	
4.84467	
4.83551	
4.83551	
4.84009	
4.84161	
4.83856	
4.83856	
4.83856	
4.83704	
4.83704	
4.83398	
4.83856	
4.83551	
4.84161	
4.83856	
4.83704	
4.83551	
4.83398	
4.83856	
4.83398	
4.83856	
4.83551	
4.83246	
4.83398	
4.83093	
4.82941	
4.83398	
4.83856	
4.84314	
4.83856	
4.84161	
4.83856	
4.84009	
4.83704	
4.83856	
4.84009	
4.83704	
4.83856	
4.83551	
4.83551	
4.83246	
4.83551	
4.83704	
4.83551	
4.83398	
4.84161	
4.83704	
4.83246	
4.83246	
4.83246	
4.83246	
4.82483	
4.83093	
4.82788	
4.82941	
4.82788	
4.82635	
4.82483	
4.82788	
4.82788	
4.83398	
4.85077	
4.84924	
4.84314	
4.83551	
4.83551	
4.83704	
4.83551	
4.83856	
4.84467	
4.84009	
4.84009	
4.84161	
4.84314	
4.84009	
4.84161	
4.84924	
4.84009	
4.83856	
4.83704	
4.84161	
4.83704	
4.83551	
4.83551	
4.84009	
4.84009	
4.84314	
4.84314	
4.84009	
4.83704	
4.83551	
4.83856	
4.84161	
4.84009	
4.83704	
4.83398	
4.84467	
4.84619	
4.84314	
4.84161	
4.83856	
4.83398	
4.83398	
4.83704	
4.83704	
4.83856	
4.83704	
4.84009	
4.83704	
4.83246	
4.83856	
4.84619	
4.84009	
4.83704	
4.83551	
4.83551	
4.83093	
4.82788	
4.82483	
4.82483	
4.8233	
4.83093	
4.84772	
4.84772	
4.84161	
4.84772	
4.84314	
4.83398	
4.83398	
4.83856	
4.84772	
4.84619	
4.84009	
4.83398	
4.83398	
4.83398	
4.83246	
4.83093	
4.82941	
4.83246	
4.84009	
4.84772	
4.84924	
4.85382	
4.84924	
4.84619	
4.84161	
4.83856	
4.84009	
4.83704	
4.83704	
4.83246	
4.83398	
4.83398	
4.83704	
4.83704	
4.84009	
4.83856	
4.83856	
4.83246	
4.83856	
4.83551	
4.83093	
4.83246	
4.83704	
4.83856	
4.83704	
4.83704	
4.83704	
4.83551	
4.83246	
4.83246	
4.83551	
4.83551	
4.83551	
4.83093	
4.83704	
4.83246	
4.83246	
4.83551	
4.83246	
4.83246	
4.83093	
4.82941	
4.83093	
4.82941	
4.82788	
4.82941	
4.83246	
4.82941	
4.83093	
4.83398	
4.83398	
4.83093	
4.83093	
4.83398	
4.83246	
4.82788	
4.82635	
4.83093	
4.83246	
4.83093	
4.83551	
4.83246	
4.83398	
4.83551	
4.83093	
4.83398	
4.83246	
4.82635	
4.82941	
4.82788	
4.82788	
4.82941	
4.83398	
4.84619	
4.84314	
4.83551	
4.83551	
4.83551	
4.83704	
4.83551	
4.83704	
4.84161	
4.83398	
4.83856	
4.84161	
4.83704	
4.83704	
4.83704	
4.83856	
4.83704	
4.83551	
4.83398	
4.83856	
4.83704	
4.83704	
4.83704	
4.83551	
4.83398	
4.82788	
4.83398	
4.83246	
4.83398	
4.82788	
4.83093	
4.83551	
4.84009	
4.84619	
4.84314	
4.84161	
4.84009	
4.84009	
4.84314	
4.84314	
4.84467	
4.84467	
4.84467	
4.84161	
4.84009	
4.84314	
4.83704	
4.83551	
4.83704	
4.83551	
4.83856	
4.83398	
4.83704	
4.83246	
4.83398	
4.83093	
4.83398	
4.83704	
4.83856	
4.83704	
4.83398	
4.83704	
4.83398	
4.83246	
4.83093	
4.83246	
4.82941	
4.82941	
4.83551	
4.84009	
4.83704	
4.83246	
4.83856	
4.83704	
4.83551	
4.83551	
4.83704	
4.83704	
4.83398	
4.83398	
4.83551	
4.83551	
4.82941	
4.82941	
4.82941	
4.83093	
4.82788	
4.83093	
4.83093	
4.82788	
4.82941	
4.82635	
4.82635	
4.82635	
4.82483	
4.83551	
4.83093	
4.82178	
4.82788	
4.82941	
4.83246	
4.83093	
4.83398	
4.83551	
4.83398	
4.83246	
4.83398	
4.83398	
4.83856	
4.83398	
4.83551	
4.83551	
4.83246	
4.83398	
4.83093	
4.83246	
4.83093	
4.83093	
4.83246	
4.83398	
4.83551	
4.83246	
4.83398	
4.83551	
4.84009	
4.83856	
4.83856	
4.83551	
4.83704	
4.83704	
4.84161	
4.83704	
4.83551	
4.83398	
4.83398	
4.83704	
4.83704	
4.83856	
4.83704	
4.83856	
4.83856	
4.84161	
4.84009	
4.83856	
4.84009	
4.83704	
4.84161	
4.83704	
4.83704	
4.83704	
4.83551	
4.83551	
4.82941	
4.83856	
4.83704	
4.83704	
4.84161	
4.84161	
4.84161	
4.83704	
4.84009	
4.83856	
4.83398	
4.83551	
4.83398	
4.83398	
4.83551	
4.83856	
4.83856	
4.83551	
4.83398	
4.83398	
4.83704	
4.83551	
4.83551	
4.83246	
4.83551	
4.83246	
4.83398	
4.83093	
4.83551	
4.83551	
4.83398	
4.83398	
4.84009	
4.83704	
4.83856	
4.84009	
4.83704	
4.83856	
4.83856	
4.83704	
4.83704	
4.83704	
4.83551	
4.83704	
4.83704	
4.83551	
4.83398	
4.83398	
4.83551	
4.83398	
4.83856	
4.83246	
4.83246	
4.82941	
4.83398	
4.83093	
4.83551	
4.83704	
4.83704	
4.82941	
4.83398	
4.83398	
4.83398	
4.83246	
4.83246	
4.83398	
4.83246	
4.83551	
4.83398	
4.83093	
4.83398	
4.83551	
4.83093	
4.83246	
4.83398	
4.83398	
4.84619	
4.84314	
4.84314	
4.83398	
4.83704	
4.83246	
4.83246	
4.83246	
4.83398	
4.83398	
4.83551	
4.83246	
4.83246	
4.83704	
4.83398	
4.83398	
4.83246	
4.83093	
4.83398	
4.83398	
4.83246	
4.83093	
4.83551	
4.82941	
4.83704	
4.82941	
4.83551	
4.82941	
4.83704	
4.83551	
4.83704	
4.83704	
4.83551	
4.83246	
4.83704	
4.83856	
4.83398	
4.83856	
4.83246	
4.83551	
4.83551	
4.83704	
4.83704	
4.83398	
4.83704	
4.83398	
4.83704	
4.83704	
4.83551	
4.83551	
4.83398	
4.83551	
4.83856	
4.82941	
4.82788	
4.82635	
4.83093	
4.82635	
4.83093	
4.82788	
4.83093	
4.82788	
4.82635	
4.82788	
4.82788	
4.82635	
4.82483	
4.8233	
4.82941	
4.82483	
4.82788	
4.82941	
4.82941	
4.82941	
4.83246	
4.82788	
4.82788	
4.82788	
4.83246	
4.83246	
4.83246	
4.83398	
4.83246	
4.83398	
4.83551	
4.83856	
4.83551	
4.83246	
4.82635	
4.83093	
4.83093	
4.83551	
4.83246	
4.83093	
4.83551	
4.83551	
4.83398	
4.83551	
4.83856	
4.83398	
4.83398	
4.83246	
4.83704	
4.83246	
4.83093	
4.82941	
4.82788	
4.83093	
4.83246	
4.83398	
4.83246	
4.83398	
4.83398	
4.83856	
4.83551	
4.83093	
4.83093	
4.82941	
4.83246	
4.82941	
4.83246	
4.83246	
4.82941	
4.82941	
4.83093	
4.82941	
4.82635	
4.82635	
4.83093	
4.83246	
4.83856	
4.83398	
4.83246	
4.83398	
4.83398	
4.83093	
4.82941	
4.82941	
4.8233	
4.82635	
4.83093	
4.83398	
4.83398	
4.83856	
4.84161	
4.83704	
4.83704	
4.83398	
4.83551	
4.83246	
4.83246	
4.82941	
4.83704	
4.82941	
4.82788	
4.82635	
4.82788	
4.82635	
4.82941	
4.82941	
4.83246	
4.83398	
4.83398	
4.83704	
4.83551	
4.83551	
4.83398	
4.83398	
4.83246	
4.83093	
4.83093	
4.82788	
4.83093	
4.83093	
4.83398	
4.83093	
4.83246	
4.82788	
4.82941	
4.83398	
4.83398	
4.83398	
4.83398	
4.83093	
4.83246	
4.83093	
4.83093	
4.82941	
4.82483	
4.82635	
4.82941	
4.82788	
4.82941	
4.82788	
4.82788	
4.83398	
4.82941	
4.82635	
4.83093	
4.82635	
4.82178	
4.82178	
4.82635	
4.83093	
4.83093	
4.83246	
4.83398	
4.83398	
4.82788	
4.8233	
4.81873	
4.82635	
4.81873	
4.81873	
4.81567	
4.81262	
4.82178	
4.8584	
4.85535	
4.84467	
4.84314	
4.83551	
4.83246	
4.83246	
4.83246	
4.82941	
4.82941	
4.82941	
4.83093	
4.82941	
4.82788	
4.82788	
4.82483	
4.82635	
4.82635	
4.82788	
4.82635	
4.82635	
4.82178	
4.82635	
4.82483	
4.82483	
4.82483	
4.82635	
4.8233	
4.82483	
4.82483	
4.82635	
4.82635	
4.82788	
4.82483	
4.82788	
4.83551	
4.83551	
4.82788	
4.82788	
4.82483	
4.82483	
4.82483	
4.8233	
4.82788	
4.83246	
4.82788	
4.83093	
4.82941	
4.82635	
4.8233	
4.82178	
4.81873	
4.81873	
4.8233	
4.83093	
4.83093	
4.82788	
4.82635	
4.82635	
4.8233	
4.82178	
4.8172	
4.82178	
4.81873	
4.8172	
4.81873	
4.81415	
4.8233	
4.83093	
4.83246	
4.83704	
4.82941	
4.83398	
4.84009	
4.83093	
4.83398	
4.83093	
4.83093	
4.82788	
4.83398	
4.82941	
4.83093	
4.82635	
4.82635	
4.82483	
4.82635	
4.82788	
4.82483	
4.82788	
4.8233	
4.82483	
4.82178	
4.8233	
4.8233	
4.82788	
4.83093	
4.83246	
4.82635	
4.82483	
4.82788	
4.82941	
4.82483	
4.82483	
4.82483	
4.8233	
4.82941	
4.82788	
4.82483	
4.82635	
4.82483	
4.8233	
4.82178	
4.82635	
4.82941	
4.82941	
4.82788	
4.82483	
4.82483	
4.82483	
4.82635	
4.82635	
4.82635	
4.8233	
4.82635	
4.8233	
4.83093	
4.82941	
4.83093	
4.83093	
4.83398	
4.83246	
4.83093	
4.82788	
4.8233	
4.82635	
4.82483	
4.82178	
4.82483	
4.82635	
4.82788	
4.82483	
4.82788	
4.82788	
4.82788	
4.82941	
4.83398	
4.83246	
4.82788	
4.82788	
4.83246	
4.82788	
4.82788	
4.82483	
4.82483	
4.8233	
4.82178	
4.82483	
4.8233	
4.82941	
4.8233	
4.82788	
4.82635	
4.83093	
4.82635	
4.8233	
4.82788	
4.83398	
4.83093	
4.83246	
4.82788	
4.82635	
4.82483	
4.82635	
4.82635	
4.82941	
4.82788	
4.82788	
4.83093	
4.82788	
4.82788	
4.82483	
4.82788	
4.82788	
4.82635	
4.83246	
4.83093	
4.83246	
4.83093	
4.83093	
4.82788	
4.82941	
4.82483	
4.82941	
4.83093	
4.82941	
4.83398	
4.83398	
4.82941	
4.82788	
4.83704	
4.82788	
4.82788	
4.82635	
4.82788	
4.83093	
4.82941	
4.82483	
4.82788	
4.82941	
4.83093	
4.83246	
4.83093	
4.82941	
4.83398	
4.83551	
4.83398	
4.83093	
4.82941	
4.83093	
4.82941	
4.83093	
4.82788	
4.83246	
4.83246	
4.82635	
4.83398	
4.83093	
4.83398	
4.83093	
4.83093	
4.83398	
4.84467	
4.83704	
4.83246	
4.83246	
4.82941	
4.83246	
4.82941	
4.82941	
4.82788	
4.82788	
4.82635	
4.82941	
4.83093	
4.82788	
4.82483	
4.82941	
4.83246	
4.83093	
4.83093	
4.82635	
4.82635	
4.82483	
4.82788	
4.83398	
4.83246	
4.84314	
4.83856	
4.83551	
4.83398	
4.83398	
4.83093	
4.83398	
4.82941	
4.83551	
4.83398	
4.83551	
4.83551	
4.83398	
4.82941	
4.82941	
4.8233	
4.82635	
4.82483	
4.81873	
4.82635	
4.82483	
4.83093	
4.83246	
4.83398	
4.83398	
4.83246	
4.83398	
4.82788	
4.83398	
4.83093	
4.83246	
4.83093	
4.83398	
4.83093	
4.82941	
4.82788	
4.83093	
4.82941	
4.83093	
4.82941	
4.83093	
4.83246	
4.83246	
4.83093	
4.82483	
4.82635	
4.82635	
4.82635	
4.82635	
4.82483	
4.82635	
4.82941	
4.82788	
4.82788	
4.83093	
4.82788	
4.82788	
4.82483	
4.82483	
4.82483	
4.82635	
4.82483	
4.82788	
4.83093	
4.82483	
4.82178	
4.82483	
4.82788	
4.8233	
4.82483	
4.8233	
4.82635	
4.82788	
4.82788	
4.82635	
4.83093	
4.82788	
4.8233	
4.82483	
4.82483	
4.82178	
4.81873	
4.82483	
4.82635	
4.82635	
4.82483	
4.81873	
4.8233	
4.82178	
4.82483	
4.83551	
4.83246	
4.8233	
4.82635	
4.82635	
4.82941	
4.82941	
4.82635	
4.82635	
4.82635	
4.82178	
4.82788	
4.82788	
4.82788	
4.83246	
4.83246	
4.82635	
4.82941	
4.82483	
4.8233	
4.82635	
4.82788	
4.81873	
4.82178	
4.81567	
4.81567	
4.82178	
4.82178	
4.8172	
4.8233	
4.82483	
4.82788	
4.8233	
4.82178	
4.81873	
4.81873	
4.8172	
4.8233	
4.82483	
4.81873	
4.82178	
4.81873	
4.81873	
4.81415	
4.81873	
4.8172	
4.81873	
4.81873	
4.82178	
4.82635	
4.82941	
4.82788	
4.8233	
4.8233	
4.82178	
4.82178	
4.8172	
4.81873	
4.81873	
4.82178	
4.81873	
4.82483	
4.82635	
4.8233	
4.82788	
4.82788	
4.83093	
4.82483	
4.82483	
4.82483	
4.82178	
4.82178	
4.8172	
4.81567	
4.80804	
4.8111	
4.81415	
4.81873	
4.81873	
4.8233	
4.8233	
4.83398	
4.83551	
4.83398	
4.82941	
4.83093	
4.82178	
4.82635	
4.82635	
4.8233	
4.8233	
4.82635	
4.82483	
4.82635	
4.8233	
4.81873	
4.82483	
4.82483	
4.82178	
4.82483	
4.82178	
4.8233	
4.8172	
4.82178	
4.82483	
4.8233	
4.81873	
4.81873	
4.82178	
4.82635	
4.82178	
4.82178	
4.81873	
4.81873	
4.81873	
4.8172	
4.82178	
4.8172	
4.81873	
4.81873	
4.81873	
4.82483	
4.82788	
4.82788	
4.82483	
4.82483	
4.82483	
4.8233	
4.81873	
4.82178	
4.82178	
4.82178	
4.82483	
4.82635	
4.8233	
4.82483	
4.81873	
4.81873	
4.82178	
4.81873	
4.81873	
4.81873	
4.82178	
4.81873	
4.8233	
4.81873	
4.81873	
4.81873	
4.81873	
4.82483	
4.8233	
4.8233	
4.8233	
4.81873	
4.81873	
4.8172	
4.81873	
4.82788	
4.81873	
4.8172	
4.82178	
4.82483	
4.8233	
4.81873	
4.8233	
4.8233	
4.82178	
4.81873	
4.81873	
4.81262	
4.81567	
4.82178	
4.82635	
4.8233	
4.82178	
4.81567	
4.8233	
4.81873	
4.81567	
4.8172	
4.81873	
4.82178	
4.8233	
4.82178	
4.82483	
4.82178	
4.8172	
4.82178	
4.82178	
4.8233	
4.82178	
4.81262	
4.8172	
4.81567	
4.81567	
4.81415	
4.8172	
4.81415	
4.8172	
4.82178	
4.8233	
4.82178	
4.81567	
4.82178	
4.81873	
4.8172	
4.81415	
4.8172	
4.8172	
4.81873	
4.8172	
4.81873	
4.81873	
4.8172	
4.81873	
4.82178	
4.8172	
4.81415	
4.8172	
4.8172	
4.82178	
4.81567	
4.8172	
4.8172	
4.81567	
4.8111	
4.8172	
4.81415	
4.8111	
4.81262	
4.81415	
4.81262	
4.81415	
4.81415	
4.81567	
4.81415	
4.8111	
4.80804	
4.80957	
4.80652	
4.80804	
4.80652	
4.8111	
4.80957	
4.80957	
4.81262	
4.80804	
4.80652	
4.80804	
4.81262	
4.81262	
4.8111	
4.81262	
4.81262	
4.80957	
4.80957	
4.80804	
4.80652	
4.80347	
4.80957	
4.81262	
4.81873	
4.8172	
4.82178	
4.8233	
4.8172	
4.81567	
4.81567	
4.8172	
4.81415	
4.8111	
4.80804	
4.8233	
4.81415	
4.80957	
4.80347	
4.80804	
4.80957	
4.80652	
4.82178	
4.82635	
4.82788	
4.82941	
4.81873	
4.8172	
4.81873	
4.81415	
4.81262	
4.81567	
4.81415	
4.8111	
4.81262	
4.81262	
4.81262	
4.81262	
4.80957	
4.80957	
4.80957	
4.80957	
4.81873	
4.81567	
4.8172	
4.81262	
4.80957	
4.8111	
4.81415	
4.80957	
4.80957	
4.80957	
4.80652	
4.81262	
4.8172	
4.80957	
4.80652	
4.8111	
4.81415	
4.8111	
4.8111	
4.81567	
4.81262	
4.8111	
4.80957	
4.81415	
4.80957	
4.80652	
4.80957	
4.80957	
4.80957	
4.80957	
4.80957	
4.80957	
4.81262	
4.8111	
4.81262	
4.80652	
4.80194	
4.79889	
4.80042	
4.8172	
4.8111	
4.80804	
4.81262	
4.8233	
4.83246	
4.83398	
4.8233	
4.81873	
4.81262	
4.8172	
4.8172	
4.8233	
4.82483	
4.82483	
4.81567	
4.8172	
4.81567	
4.81415	
4.81262	
4.80957	
4.8111	
4.80957	
4.81567	
4.8233	
4.81262	
4.81567	
4.81567	
4.8111	
4.81262	
4.81567	
4.81262	
4.81262	
4.8111	
4.81567	
4.80957	
4.80804	
4.80957	
4.80652	
4.80957	
4.81262	
4.80804	
4.80652	
4.8111	
4.80804	
4.8111	
4.81262	
4.80957	
4.80957	
4.80652	
4.80652	
4.80652	
4.80042	
4.80347	
4.80499	
4.80042	
4.80652	
4.80804	
4.80499	
4.81262	
4.81262	
4.81262	
4.8111	
4.80652	
4.80652	
4.80957	
4.80499	
4.80652	
4.80347	
4.80042	
4.80194	
4.80042	
4.80347	
4.80804	
4.80652	
4.80347	
4.80804	
4.80652	
4.80347	
4.80042	
4.80194	
4.79736	
4.79889	
4.80042	
4.80499	
4.80042	
4.80042	
4.79889	
4.80042	
4.80042	
4.80194	
4.79736	
4.79889	
4.79889	
4.80042	
4.80347	
4.80194	
4.80042	
4.80042	
4.80194	
4.80042	
4.79889	
4.79736	
4.79736	
4.79889	
4.79431	
4.80042	
4.79889	
4.79584	
4.79889	
4.80042	
4.80042	
4.80042	
4.79889	
4.80042	
4.79889	
4.79889	
4.79889	
4.79584	
4.79889	
4.79431	
4.79736	
4.79584	
4.79431	
4.79431	
4.78973	
4.79126	
4.78516	
4.79584	
4.79584	
4.79431	
4.80652	
4.80804	
4.80652	
4.80804	
4.80194	
4.80042	
4.79431	
4.79584	
4.79889	
4.79889	
4.79736	
4.80194	
4.79889	
4.79736	
4.80194	
4.80042	
4.81262	
4.80347	
4.80194	
4.80042	
4.80042	
4.79431	
4.79584	
4.79736	
4.79584	
4.79584	
4.79584	
4.80042	
4.79889	
4.79889	
4.79889	
4.80042	
4.79889	
4.79431	
4.79126	
4.78973	
4.78668	
4.78516	
4.78973	
4.78363	
4.78668	
4.80194	
4.80652	
4.80499	
4.80194	
4.79889	
4.79736	
4.79736	
4.79889	
4.79736	
4.79736	
4.79584	
4.79584	
4.79736	
4.79584	
4.79431	
4.79736	
4.79584	
4.79584	
4.79736	
4.79736	
4.80042	
4.80042	
4.79736	
4.80042	
4.79584	
4.80042	
4.79736	
4.79736	
4.79736	
4.79736	
4.79736	
4.79736	
4.79736	
4.79736	
4.79584	
4.79736	
4.79584	
4.80194	
4.80347	
4.79889	
4.80042	
4.79889	
4.79736	
4.79584	
4.79126	
4.79279	
4.78668	
4.79126	
4.78668	
4.78668	
4.80347	
4.80042	
4.79431	
4.79889	
4.79584	
4.79431	
4.79584	
4.79736	
4.80042	
4.80652	
4.80652	
4.80042	
4.79584	
4.79126	
4.79279	
4.79279	
4.79584	
4.79584	
4.80042	
4.80042	
4.79889	
4.80194	
4.80042	
4.80347	
4.80042	
4.80042	
4.79736	
4.80042	
4.80194	
4.80042	
4.79889	
4.79736	
4.79736	
4.79431	
4.79431	
4.79279	
4.79279	
4.79279	
4.79736	
4.79889	
4.80499	
4.80652	
4.80042	
4.80347	
4.79584	
4.79584	
4.79279	
4.79279	
4.78668	
4.79431	
4.79584	
4.79736	
4.80499	
4.79889	
4.79736	
4.79584	
4.79889	
4.79584	
4.80347	
4.80042	
4.79889	
4.80042	
4.79736	
4.79431	
4.79889	
4.79584	
4.79736	
4.79584	
4.79736	
4.79584	
4.79736	
4.79889	
4.79736	
4.80347	
4.79584	
4.79736	
4.79736	
4.79736	
4.80042	
4.79431	
4.79584	
4.79584	
4.79584	
4.79279	
4.79431	
4.79431	
4.78973	
4.79126	
4.79889	
4.79584	
4.79584	
4.79889	
4.80194	
4.80347	
4.79736	
4.79736	
4.79431	
4.79736	
4.79431	
4.79584	
4.79736	
4.79889	
4.79889	
4.79889	
4.79584	
4.79736	
4.79736	
4.79736	
4.79736	
4.79584	
4.79584	
4.79889	
4.80042	
4.79584	
4.79736	
4.79584	
4.79736	
4.79584	
4.79584	
4.79584	
4.79736	
4.80042	
4.80042	
4.80499	
4.80042	
4.80042	
4.80194	
4.79889	
4.80042	
4.79889	
4.79889	
4.79584	
4.79279	
4.79126	
4.79736	
4.79889	
4.79889	
4.79736	
4.79736	
4.79736	
4.79584	
4.79584	
4.79889	
4.79889	
4.79736	
4.79431	
4.79279	
4.79431	
4.79126	
4.79279	
4.79584	
4.79584	
4.79584	
4.79279	
4.79431	
4.79431	
4.79889	
4.79584	
4.79736	
4.79889	
4.79431	
4.79736	
4.79584	
4.79584	
4.79431	
4.79431	
4.80042	
4.79431	
4.79584	
4.79584	
4.79584	
4.79584	
4.79889	
4.80042	
4.79736	
4.79584	
4.79736	
4.79584	
4.80347	
4.79736	
4.79889	
4.79736	
4.79584	
4.79584	
4.79584	
4.79584	
4.79431	
4.79584	
4.79584	
4.79584	
4.79584	
4.79736	
4.79736	
4.80194	
4.79584	
4.80042	
4.79584	
4.79584	
4.79126	
4.79584	
4.79584	
4.79431	
4.79889	
4.80042	
4.80042	
4.80194	
4.80042	
4.79736	
4.79889	
4.79736	
4.79584	
4.79431	
4.79584	
4.79279	
4.79584	
4.79889	
4.79431	
4.79431	
4.79431	
4.79584	
4.79431	
4.79584	
4.79279	
4.79736	
4.79279	
4.79279	
4.79431	
4.79279	
4.79126	
4.78973	
4.79126	
4.78668	
4.79279	
4.79126	
4.79126	
4.79279	
4.79279	
4.79431	
4.79279	
4.79584	
4.79279	
4.79584	
4.79279	
4.79279	
4.79126	
4.79431	
4.79126	
4.79279	
4.79126	
4.79126	
4.78973	
4.79126	
4.78973	
4.79279	
4.79126	
4.78973	
4.79126	
4.79126	
4.79279	
4.78973	
4.78973	
4.78973	
4.78516	
4.78973	
4.78668	
4.78516	
4.78668	
4.78668	
4.78363	
4.78516	
4.78363	
4.78516	
4.78973	
4.79126	
4.79126	
4.79126	
4.79584	
4.78973	
4.78973	
4.78668	
4.78668	
4.79279	
4.79126	
4.78973	
4.78973	
4.78516	
4.78973	
4.78973	
4.79126	
4.79126	
4.79126	
4.78973	
4.79431	
4.78973	
4.78973	
4.79279	
4.79279	
4.78363	
4.78516	
4.78973	
4.78668	
4.7821	
4.78668	
4.78973	
4.78973	
4.78973	
4.78973	
4.78973	
4.79431	
4.78973	
4.78363	
4.78516	
4.78516	
4.78516	
4.78363	
4.78363	
4.78516	
4.78668	
4.78363	
4.78668	
4.78973	
4.78516	
4.78668	
4.79126	
4.78363	
4.78668	
4.78668	
4.78516	
4.78516	
4.78363	
4.78973	
4.78973	
4.78668	
4.78668	
4.78973	
4.79126	
4.78668	
4.78973	
4.78668	
4.78973	
4.78668	
4.78516	
4.78973	
4.78668	
4.78363	
4.78516	
4.78516	
4.78363	
4.78058	
4.7821	
4.7821	
4.77905	
4.78516	
4.78516	
4.78516	
4.78363	
4.78363	
4.78363	
4.78516	
4.78363	
4.78058	
4.7821	
4.77905	
4.78058	
4.78058	
4.77905	
4.77753	
4.7821	
4.77448	
4.77905	
4.77905	
4.77905	
4.7821	
4.78058	
4.77753	
4.776	
4.7821	
4.77448	
4.776	
4.77295	
4.77753	
4.77448	
4.77295	
4.77448	
4.77295	
4.77295	
4.77295	
4.776	
4.776	
4.77753	
4.77142	
4.77295	
4.77448	
4.77448	
4.77142	
4.7699	
4.77295	
4.7699	
4.7699	
4.76837	
4.76685	
4.76379	
4.7699	
4.7699	
4.77142	
4.76837	
4.76837	
4.76379	
4.76227	
4.75616	
4.76074	
4.75616	
4.75159	
4.75159	
4.75006	
4.75159	
4.75006	
4.75159	
4.75311	
4.75311	
4.75311	
4.75464	
4.75616	
4.75616	
4.75922	
4.76074	
4.76379	
4.76074	
4.75464	
4.76074	
4.75616	
4.75922	
4.75922	
4.75311	
4.75464	
4.75464	
4.75464	
4.75311	
4.75311	
4.75464	
4.75159	
4.75464	
4.75006	
4.75311	
4.75311	
4.75159	
4.75616	
4.74701	
4.75159	
4.75464	
4.75159	
4.75159	
4.74854	
4.75311	
4.75311	
4.75311	
4.75464	
4.75311	
4.75922	
4.75311	
4.75006	
4.75311	
4.74854	
4.75311	
4.75159	
4.75159	
4.74854	
4.74548	
4.74091	
4.74091	
4.74243	
4.74396	
4.74396	
4.74243	
4.74396	
4.74243	
4.74243	
4.73938	
4.74091	
4.73938	
4.73938	
4.73938	
4.73785	
4.73785	
4.73938	
4.73938	
4.73785	
4.73938	
4.73785	
4.74091	
4.73785	
4.74243	
4.73938	
4.73785	
4.73785	
4.73785	
4.73785	
4.73633	
4.73938	
4.73328	
4.73785	
4.73328	
4.73633	
4.74091	
4.73785	
4.73938	
4.73938	
4.73938	
4.74243	
4.73938	
4.73785	
4.73785	
4.73633	
4.73633	
4.73785	
4.7348	
4.73785	
4.73785	
4.73785	
4.73633	
4.73633	
4.73633	
4.73785	
4.73938	
4.73785	
4.7348	
4.73785	
4.73328	
4.7348	
4.7348	
4.7348	
4.7348	
4.73022	
4.7348	
4.73633	
4.73328	
4.7348	
4.7348	
4.7348	
4.7348	
4.73633	
4.73938	
4.73785	
4.73633	
4.73785	
4.73938	
4.7348	
4.73328	
4.73022	
4.73022	
4.73175	
4.73175	
4.73328	
4.73328	
4.73328	
4.7348	
4.7348	
4.7348	
4.7348	
4.73175	
4.73328	
4.73175	
4.73175	
4.73022	
4.72717	
4.72717	
4.73022	
4.73022	
4.7348	
4.73328	
4.7348	
4.73938	
4.73938	
4.73785	
4.73633	
4.73938	
4.74091	
4.7348	
4.7348	
4.73328	
4.73328	
4.73175	
4.7348	
4.73633	
4.73633	
4.73633	
4.7348	
4.74091	
4.73938	
4.73938	
4.73785	
4.73938	
4.73633	
4.7348	
4.73785	
4.74091	
4.7348	
4.7348	
4.73328	
4.73175	
4.73175	
4.72717	
4.7287	
4.7226	
4.72107	
4.71954	
4.7226	
4.7287	
4.7348	
4.73175	
4.72717	
4.7226	
4.72717	
4.73022	
4.7287	
4.72717	
4.7287	
4.7226	
4.72412	
4.73022	
4.72717	
4.7287	
4.73022	
4.73022	
4.73022	
4.7287	
4.7287	
4.73022	
4.73022	
4.73022	
4.73022	
4.7287	
4.73022	
4.7287	
4.73328	
4.73328	
4.7287	
4.7287	
4.72412	
4.7226	
4.72412	
4.7226	
4.73022	
4.72717	
4.7287	
4.72717	
4.7287	
4.72412	
4.72717	
4.72412	
4.72412	
4.7287	
4.72717	
4.7287	
4.71954	
4.71954	
4.71649	
4.71649	
4.71954	
4.71649	
4.71649	
4.72412	
4.72107	
4.72412	
4.72107	
4.7287	
4.72412	
4.71954	
4.72107	
4.7226	
4.7226	
4.72717	
4.73022	
4.72717	
4.72717	
4.72717	
4.72717	
4.72107	
4.71954	
4.71954	
4.71497	
4.71344	
4.71497	
4.71954	
4.72412	
4.72717	
4.71802	
4.71954	
4.71649	
4.71039	
4.70428	
4.69971	
4.71191	
4.71039	
4.74396	
4.76532	
4.74701	
4.73022	
4.72412	
4.7287	
4.72717	
4.72412	
4.72717	
4.72717	
4.72412	
4.72412	
4.72107	
4.71954	
4.71649	
4.72107	
4.72412	
4.74091	
4.7348	
4.72717	
4.72717	
4.72412	
4.72107	
4.72107	
4.72107	
4.72107	
4.72107	
4.7226	
4.7226	
4.72412	
4.72717	
4.72717	
4.72717	
4.72717	
4.72717	
4.72412	
4.72412	
4.72412	
4.71954	
4.71954	
4.72412	
4.7226	
4.72412	
4.72412	
4.72717	
4.7287	
4.7287	
4.73022	
4.7287	
4.72412	
4.72107	
4.72717	
4.71954	
4.71649	
4.72107	
4.71954	
4.73328	
4.73328	
4.72717	
4.72107	
4.72107	
4.72412	
4.73328	
4.73938	
4.7348	
4.7287	
4.7287	
4.73175	
4.73328	
4.73633	
4.73328	
4.73328	
4.73022	
4.7287	
4.73175	
4.7287	
4.72717	
4.73022	
4.73328	
4.73633	
4.73633	
4.74091	
4.73175	
4.73328	
4.74091	
4.73633	
4.73175	
4.73022	
4.73175	
4.73328	
4.74396	
4.74548	
4.73633	
4.73328	
4.73633	
4.74091	
4.74854	
4.74396	
4.74091	
4.73938	
4.73938	
4.73785	
4.73633	
4.73328	
4.73175	
4.73175	
4.7348	
4.74091	
4.74548	
4.74396	
4.75464	
4.76379	
4.75311	
4.74701	
4.74701	
4.74701	
4.74396	
4.74396	
4.74243	
4.74243	
4.74091	
4.74091	
4.74243	
4.74548	
4.74396	
4.74548	
4.74091	
4.74091	
4.74701	
4.74701	
4.74396	
4.74396	
4.74243	
4.74396	
4.74243	
4.73938	
4.73938	
4.73938	
4.73938	
4.73938	
4.74396	
4.74091	
4.73938	
4.74243	
4.74396	
4.74396	
4.74396	
4.74243	
4.74243	
4.74396	
4.74396	
4.74396	
4.73785	
4.74091	
4.74396	
4.74396	
4.74396	
4.74091	
4.74396	
4.74243	
4.74243	
4.74396	
4.74701	
4.74701	
4.74091	
4.74091	
4.73938	
4.73938	
4.73785	
4.73938	
4.7348	
4.74091	
4.73328	
4.73785	
4.73633	
4.74243	
4.74396	
4.74701	
4.74854	
4.74701	
4.74396	
4.74396	
4.74243	
4.73785	
4.74091	
4.74091	
4.73785	
4.73938	
4.73938	
4.74243	
4.74243	
4.74243	
4.73785	
4.74091	
4.73633	
4.73633	
4.73328	
4.73328	
4.74854	
4.74701	
4.74243	
4.74701	
4.74854	
4.74396	
4.74091	
4.73938	
4.74091	
4.73938	
4.74396	
4.74396	
4.74548	
4.74396	
4.74548	
4.74548	
4.74701	
4.74854	
4.74701	
4.74243	
4.74396	
4.74548	
4.74243	
4.74548	
4.73785	
4.74396	
4.75006	
4.74396	
4.74091	
4.74396	
4.74701	
4.74548	
4.74548	
4.74091	
4.73633	
4.73785	
4.73633	
4.73938	
4.74243	
4.73938	
4.74243	
4.75616	
4.76685	
4.75922	
4.75006	
4.74854	
4.74701	
4.74548	
4.74701	
4.75464	
4.75616	
4.75159	
4.74854	
4.75006	
4.74396	
4.74854	
4.75006	
4.74396	
4.74701	
4.74091	
4.74548	
4.75616	
4.75922	
4.75311	
4.75159	
4.74548	
4.74701	
4.74701	
4.74854	
4.75159	
4.74701	
4.75006	
4.75311	
4.75311	
4.74548	
4.74854	
4.74396	
4.74091	
4.73633	
4.73785	
4.73785	
4.73938	
4.74701	
4.75159	
4.75922	
4.75159	
4.75464	
4.75159	
4.75159	
4.74548	
4.74548	
4.75006	
4.74701	
4.74701	
4.74701	
4.74701	
4.74701	
4.74701	
4.74701	
4.75006	
4.74396	
4.74396	
4.74243	
4.74854	
4.74548	
4.74548	
4.74396	
4.74701	
4.74091	
4.74396	
4.74701	
4.74548	
4.74701	
4.74548	
4.75006	
4.74701	
4.74701	
4.74243	
4.74243	
4.73938	
4.74548	
4.75464	
4.76532	
4.75464	
4.74854	
4.74854	
4.74701	
4.74091	
4.73785	
4.75311	
4.74396	
4.74243	
4.74701	
4.75922	
4.76685	
4.75922	
4.75159	
4.75006	
4.74548	
4.74396	
4.74396	
4.74548	
4.74243	
4.74396	
4.74396	
4.74548	
4.74548	
4.74243	
4.74091	
4.74854	
4.74396	
4.74396	
4.74701	
4.74854	
4.74701	
4.74548	
4.74396	
4.74243	
4.73938	
4.74091	
4.74243	
4.74243	
4.74243	
4.74396	
4.75006	
4.74701	
4.74243	
4.74243	
4.74243	
4.74396	
4.74854	
4.75006	
4.75006	
4.74548	
4.74548	
4.74701	
4.74548	
4.74548	
4.74548	
4.74854	
4.74396	
4.74548	
4.74701	
4.74548	
4.74243	
4.73938	
4.73938	
4.73938	
4.74091	
4.73633	
4.73938	
4.73785	
4.73633	
4.74854	
4.74854	
4.74701	
4.74548	
4.74243	
4.7348	
4.73938	
4.73938	
4.7348	
4.73938	
4.75464	
4.75922	
4.75006	
4.73938	
4.74396	
4.75006	
4.74701	
4.75159	
4.75464	
4.75311	
4.75006	
4.75159	
4.74396	
4.74701	
4.74243	
4.74091	
4.74243	
4.73938	
4.75464	
4.75464	
4.74548	
4.75311	
4.76227	
4.75616	
4.75006	
4.75006	
4.75159	
4.75464	
4.75006	
4.75159	
4.75006	
4.74701	
4.75006	
4.74854	
4.74548	
4.74548	
4.74396	
4.74243	
4.73938	
4.74396	
4.74396	
4.74701	
4.74701	
4.74854	
4.74701	
4.75159	
4.75159	
4.74548	
4.74243	
4.74396	
4.74243	
4.74243	
4.74243	
4.74701	
4.74548	
4.74396	
4.74243	
4.74243	
4.75159	
4.75311	
4.74548	
4.74548	
4.74701	
4.75159	
4.74854	
4.74243	
4.74548	
4.74396	
4.75311	
4.76379	
4.76227	
4.75616	
4.76074	
4.75616	
4.75159	
4.75311	
4.75922	
4.75922	
4.75006	
4.75159	
4.75922	
4.75311	
4.75922	
4.77448	
4.76532	
4.76227	
4.75159	
4.75159	
4.75006	
4.75464	
4.74854	
4.74548	
4.75311	
4.75159	
4.74701	
4.74548	
4.74396	
4.75616	
4.74854	
4.74548	
4.75159	
4.75464	
4.75006	
4.74854	
4.75464	
4.75311	
4.74701	
4.75006	
4.75006	
4.75159	
4.75159	
4.75311	
4.74548	
4.74854	
4.74396	
4.74396	
4.74243	
4.74548	
4.74701	
4.74243	
4.74854	
4.75006	
4.74396	
4.74701	
4.74091	
4.73785	
4.73938	
4.73633	
4.74091	
4.73633	
4.74091	
4.74243	
4.73785	
4.73938	
4.73633	
4.74396	
4.74548	
4.75159	
4.76227	
4.74854	
4.74396	
4.74396	
4.74701	
4.74396	
4.74854	
4.75006	
4.75159	
4.74854	
4.74548	
4.74243	
4.73785	
4.7287	
4.72412	
4.73633	
4.73633	
4.74701	
4.74854	
4.74854	
4.74854	
4.75464	
4.75464	
4.75616	
4.75006	
4.75159	
4.75006	
4.74854	
4.74396	
4.74091	
4.74243	
4.74396	
4.74396	
4.74396	
4.74701	
4.74396	
4.73938	
4.73785	
4.73938	
4.73785	
4.74091	
4.73785	
4.73328	
4.73633	
4.73938	
4.75159	
4.74701	
4.74243	
4.73938	
4.73938	
4.73938	
4.7348	
4.73175	
4.7287	
4.73022	
4.7226	
4.73022	
4.7348	
4.75616	
4.75616	
4.75311	
4.74701	
4.74396	
4.74091	
4.74091	
4.74548	
4.74701	
4.74548	
4.74091	
4.74243	
4.73938	
4.73633	
4.7348	
4.7348	
4.73633	
4.74854	
4.75464	
4.75159	
4.73938	
4.73328	
4.73328	
4.73328	
4.7348	
4.73633	
4.74091	
4.73938	
4.73938	
4.74854	
4.75159	
4.75159	
4.74548	
4.74396	
4.74091	
4.74396	
4.74243	
4.74243	
4.73785	
4.73328	
4.73175	
4.73938	
4.74396	
4.74091	
4.74091	
4.74091	
4.73938	
4.74243	
4.74091	
4.74091	
4.74701	
4.74091	
4.74243	
4.74396	
4.74091	
4.74243	
4.74091	
4.74243	
4.74091	
4.73633	
4.74091	
4.74396	
4.74091	
4.74243	
4.73785	
4.74091	
4.73633	
4.74548	
4.75159	
4.73938	
4.73633	
4.7348	
4.74854	
4.76227	
4.75159	
4.74548	
4.74701	
4.74548	
4.74396	
4.74701	
4.74548	
4.74396	
4.74091	
4.73938	
4.74091	
4.74091	
4.75006	
4.75616	
4.75159	
4.74701	
4.74243	
4.74243	
4.73938	
4.73633	
4.75159	
4.74548	
4.74396	
4.74243	
4.75311	
4.74701	
4.75311	
4.75311	
4.75159	
4.75006	
4.74854	
4.75159	
4.75464	
4.75006	
4.74854	
4.74396	
4.74091	
4.74854	
4.75464	
4.76532	
4.76074	
4.76074	
4.75464	
4.76074	
4.76227	
4.75616	
4.75464	
4.75006	
4.74854	
4.74548	
4.74243	
4.74701	
4.75616	
4.75464	
4.75464	
4.76532	
4.76379	
4.76074	
4.75922	
4.75922	
4.75922	
4.76227	
4.76074	
4.76074	
4.75616	
4.75464	
4.74701	
4.75159	
4.74854	
4.74091	
4.74854	
4.76532	
4.77142	
4.76837	
4.76532	
4.76685	
4.76532	
4.76227	
4.75922	
4.75616	
4.76379	
4.76685	
4.75922	
4.75922	
4.76227	
4.76685	
4.76227	
4.7699	
4.76379	
4.76379	
4.76227	
4.76074	
4.75464	
4.74854	
4.74854	
4.73785	
4.74091	
4.74243	
4.75616	
4.77295	
4.77753	
4.77142	
4.77448	
4.77295	
4.76227	
4.76074	
4.75159	
4.74854	
4.74854	
4.75006	
4.75006	
4.75006	
4.73785	
4.73785	
4.75311	
4.77142	
4.76685	
4.77753	
4.7699	
4.75616	
4.75464	
4.75311	
4.776	
4.79279	
4.80042	
4.78973	
4.7821	
4.77753	
4.77753	
4.77753	
4.7699	
4.77295	
4.77448	
4.776	
4.77142	
4.76837	
4.7699	
4.76837	
4.76685	
4.77295	
4.77142	
4.77295	
4.77295	
4.77142	
4.776	
4.77448	
4.7699	
4.76837	
4.7699	
4.76837	
4.76685	
4.76379	
4.76532	
4.76837	
4.76532	
4.76837	
4.76685	
4.7699	
4.76685	
4.76837	
4.76837	
4.76837	
4.76837	
4.7699	
4.77142	
4.76837	
4.76532	
4.76532	
4.76379	
4.75616	
4.76379	
4.76074	
4.76227	
4.76074	
4.76227	
4.76532	
4.77753	
4.78363	
4.7699	
4.76837	
4.76227	
4.76685	
4.77905	
4.78363	
4.776	
4.77295	
4.7699	
4.76837	
4.7699	
4.76685	
4.7699	
4.776	
4.78363	
4.78058	
4.78058	
4.77905	
4.77142	
4.76685	
4.7699	
4.7699	
4.77142	
4.7699	
4.77295	
4.77448	
4.77448	
4.77905	
4.776	
4.77295	
4.7699	
4.77142	
4.77142	
4.77295	
4.76685	
4.77142	
4.77142	
4.76837	
4.76379	
4.76685	
4.76837	
4.76379	
4.76837	
4.76837	
4.7699	
4.76685	
4.76685	
4.76837	
4.76837	
4.76837	
4.76685	
4.76837	
4.77142	
4.77142	
4.77448	
4.77753	
4.77448	
4.77448	
4.77295	
4.77295	
4.77295	
4.76685	
4.77295	
4.776	
4.776	
4.77905	
4.78058	
4.77448	
4.77753	
4.77295	
4.77295	
4.77295	
4.77295	
4.77295	
4.77753	
4.776	
4.77753	
4.7821	
4.77753	
4.77448	
4.77142	
4.7699	
4.76685	
4.76379	
4.75922	
4.75311	
4.75311	
4.75616	
4.76837	
4.78363	
4.77753	
4.79279	
4.80957	
4.80042	
4.78973	
4.78516	
4.78516	
4.78363	
4.78668	
4.7821	
4.78058	
4.78058	
4.776	
4.78516	
4.78668	
4.7821	
4.7821	
4.78516	
4.78058	
4.78363	
4.78363	
4.78516	
4.78363	
4.78668	
4.7821	
4.77753	
4.77905	
4.77448	
4.7699	
4.7821	
4.7821	
4.78668	
4.79889	
4.79584	
4.79584	
4.78973	
4.78973	
4.79126	
4.79126	
4.78668	
4.78668	
4.79126	
4.78973	
4.78668	
4.78668	
4.78973	
4.78973	
4.78516	
4.78363	
4.7821	
4.78516	
4.78516	
4.78973	
4.78668	
4.78973	
4.78516	
4.78516	
4.78668	
4.78516	
4.78363	
4.78363	
4.78668	
4.78363	
4.78516	
4.7821	
4.78516	
4.79126	
4.79126	
4.79279	
4.79279	
4.79279	
4.79279	
4.79279	
4.78973	
4.79126	
4.78363	
4.78973	
4.78668	
4.78363	
4.79431	
4.80957	
4.80804	
4.80652	
4.80347	
4.80347	
4.80194	
4.80347	
4.80194	
4.80042	
4.79584	
4.78668	
4.79279	
4.79431	
4.80347	
4.81567	
4.81415	
4.80499	
4.80042	
4.79889	
4.80194	
4.80042	
4.79889	
4.79736	
4.79889	
4.79889	
4.79889	
4.80042	
4.80347	
4.80499	
4.80042	
4.80042	
4.79889	
4.79584	
4.79431	
4.79431	
4.79584	
4.79126	
4.79584	
4.79431	
4.79584	
4.79736	
4.79584	
4.80347	
4.80347	
4.80042	
4.80042	
4.80194	
4.80042	
4.79736	
4.79889	
4.79736	
4.79736	
4.79889	
4.79431	
4.80194	
4.80042	
4.79889	
4.80194	
4.79889	
4.80194	
4.80042	
4.80194	
4.79736	
4.80194	
4.80194	
4.80347	
4.79889	
4.79736	
4.79584	
4.79889	
4.80347	
4.80499	
4.80652	
4.80347	
4.81262	
4.8111	
4.80804	
4.80804	
4.80957	
4.80652	
4.80804	
4.80499	
4.80499	
4.80652	
4.80652	
4.80804	
4.80652	
4.80652	
4.80804	
4.81262	
4.81262	
4.81415	
4.81262	
4.8172	
4.81262	
4.8111	
4.81262	
4.81262	
4.80957	
4.80957	
4.80957	
4.8111	
4.80804	
4.80804	
4.81415	
4.8111	
4.81262	
4.81567	
4.8111	
4.81415	
4.81567	
4.81567	
4.81262	
4.8111	
4.8111	
4.80957	
4.8111	
4.80804	
4.80652	
4.80804	
4.81262	
4.80804	
4.81415	
4.81567	
4.81567	
4.81262	
4.81567	
4.8172	
4.8172	
4.8172	
4.81873	
4.81415	
4.8111	
4.81262	
4.8172	
4.8172	
4.8111	
4.81262	
4.81262	
4.8172	
4.81415	
4.81262	
4.81262	
4.81567	
4.81567	
4.8172	
4.8172	
4.81415	
4.81415	
4.81567	
4.81415	
4.81415	
4.8111	
4.80957	
4.81415	
4.8111	
4.80957	
4.81567	
4.81262	
4.80804	
4.80957	
4.81262	
4.8111	
4.80804	
4.80957	
4.81567	
4.81415	
4.80957	
4.80957	
4.81262	
4.81262	
4.80957	
4.8111	
4.81262	
4.81262	
4.81567	
4.81567	
4.8172	
4.8172	
4.81567	
4.81873	
4.81873	
4.81567	
4.8172	
4.8172	
4.8172	
4.8233	
4.82178	
4.81873	
4.82178	
4.81873	
4.8233	
4.8233	
4.82635	
4.82635	
4.82483	
4.82483	
4.82635	
4.82178	
4.81873	
4.8233	
4.82178	
4.81873	
4.82178	
4.81873	
4.8172	
4.81873	
4.8233	
4.81873	
4.82178	
4.82178	
4.82788	
4.82941	
4.8172	
4.8172	
4.81873	
4.81415	
4.81262	
4.8111	
4.81567	
4.81873	
4.8172	
4.81567	
4.8233	
4.82178	
4.82178	
4.82178	
4.82178	
4.81873	
4.8172	
4.81873	
4.8233	
4.82178	
4.8233	
4.8233	
4.82483	
4.8233	
4.81873	
4.82178	
4.82178	
4.81873	
4.82178	
4.82483	
4.82635	
4.82483	
4.82483	
4.82483	
4.8233	
4.8233	
4.8233	
4.8233	
4.8172	
4.81567	
4.81873	
4.81873	
4.8172	
4.8172	
4.8233	
4.82941	
4.82635	
4.82941	
4.83093	
4.82483	
4.82483	
4.82178	
4.82483	
4.82178	
4.8172	
4.81415	
4.81873	
4.8172	
4.81873	
4.82178	
4.8233	
4.82178	
4.82178	
4.8233	
4.82178	
4.81873	
4.8172	
4.81567	
4.81567	
4.8172	
4.8172	
4.81262	
4.81567	
4.81415	
4.81873	
4.81567	
4.82178	
4.8111	
4.81415	
4.81567	
4.8172	
4.81415	
4.81567	
4.81415	
4.81567	
4.82635	
4.82178	
4.81873	
4.82178	
4.8233	
4.8233	
4.8233	
4.82635	
4.8233	
4.82788	
4.82788	
4.82635	
4.82178	
4.8233	
4.81873	
4.8172	
4.81873	
4.82635	
4.81567	
4.81567	
4.81415	
4.81873	
4.81873	
4.8111	
4.81262	
4.8111	
4.81415	
4.8172	
4.81415	
4.82635	
4.83704	
4.82635	
4.8233	
4.81567	
4.8111	
4.80957	
4.80499	
4.80499	
4.80804	
4.82635	
4.83093	
4.82635	
4.82635	
4.83856	
4.84009	
4.83246	
4.83246	
4.82788	
4.82483	
4.82635	
4.82635	
4.81873	
4.8233	
4.8233	
4.82483	
4.82178	
4.82635	
4.82941	
4.81873	
4.82178	
4.82483	
4.82788	
4.82483	
4.82788	
4.82788	
4.82788	
4.82483	
4.82635	
4.82483	
4.8233	
4.81567	
4.81873	
4.81873	
4.8172	
4.8233	
4.8233	
4.82788	
4.82635	
4.82635	
4.82178	
4.8233	
4.82178	
4.82178	
4.8233	
4.8172	
4.81873	
4.8172	
4.8233	
4.8172	
4.82178	
4.82178	
4.8233	
4.81873	
4.82483	
4.82635	
4.82788	
4.82788	
4.82635	
4.82178	
4.82178	
4.8233	
4.81873	
4.8233	
4.8172	
4.8233	
4.81873	
4.82635	
4.82635	
4.82178	
4.82483	
4.82483	
4.82635	
4.8172	
4.81873	
4.81415	
4.81873	
4.81873	
4.8172	
4.81262	
4.80499	
4.80499	
4.80804	
4.8233	
4.82941	
4.84467	
4.84009	
4.83398	
4.83551	
4.84772	
4.84009	
4.83246	
4.82941	
4.82788	
4.83398	
4.82788	
4.82941	
4.82941	
4.83246	
4.82788	
4.82941	
4.82941	
4.82788	
4.82788	
4.83093	
4.83398	
4.83398	
4.83246	
4.83246	
4.82941	
4.82941	
4.82635	
4.82788	
4.82483	
4.82178	
4.82483	
4.82635	
4.83093	
4.82941	
4.82635	
4.82788	
4.82635	
4.82483	
4.82635	
4.82941	
4.82941	
4.82941	
4.8233	
4.82941	
4.82635	
4.82635	
4.82635	
4.82178	
4.8233	
4.82178	
4.8233	
4.82483	
4.83093	
4.82635	
4.82941	
4.82483	
4.82788	
4.83093	
4.83398	
4.83246	
4.82788	
4.82941	
4.82635	
4.8233	
4.8172	
4.81873	
4.8233	
4.82483	
4.8233	
4.8233	
4.8233	
4.82788	
4.83093	
4.82788	
4.82635	
4.82635	
4.8233	
4.8233	
4.82788	
4.8233	
4.82483	
4.82483	
4.81873	
4.8233	
4.82635	
4.83246	
4.82788	
4.8233	
4.82178	
4.82635	
4.8233	
4.8172	
4.8233	
4.83093	
4.82788	
4.82483	
4.82178	
4.82178	
4.82788	
4.82635	
4.82635	
4.82941	
4.82941	
4.81873	
4.83093	
4.82788	
4.82483	
4.82178	
4.82178	
4.82635	
4.8172	
4.82178	
4.81567	
4.81873	
4.81262	
4.81415	
4.8172	
4.81262	
4.81262	
4.8172	
4.81567	
4.8172	
4.81415	
4.81567	
4.80957	
4.80652	
4.80499	
4.80804	
4.8111	
4.82635	
4.83856	
4.82635	
4.82483	
4.8233	
4.82483	
4.8233	
4.8172	
4.81567	
4.81415	
4.8172	
4.81567	
4.81262	
4.8111	
4.81415	
4.81262	
4.81262	
4.80957	
4.80957	
4.80652	
4.80499	
4.8111	
4.82178	
4.81567	
4.81262	
4.82941	
4.82483	
4.82635	
4.81415	
4.81567	
4.81262	
4.8172	
4.81415	
4.81262	
4.81262	
4.80652	
4.80957	
4.81262	
4.81415	
4.80499	
4.81567	
4.81567	
4.81873	
4.81567	
4.81415	
4.80957	
4.80957	
4.80804	
4.80804	
4.80804	
4.80194	
4.80347	
4.80652	
4.80652	
4.80804	
4.80804	
4.80804	
4.80957	
4.8111	
4.8111	
4.81262	
4.81415	
4.81415	
4.80957	
4.81262	
4.80804	
4.80499	
4.80804	
4.8111	
4.80804	
4.80804	
4.81567	
4.8111	
4.80957	
4.80347	
4.8111	
4.8111	
4.81262	
4.80499	
4.80652	
4.82178	
4.8172	
4.80957	
4.80194	
4.80194	
4.79736	
4.80347	
4.8111	
4.8172	
4.8172	
4.82178	
4.82635	
4.82483	
4.81567	
4.8111	
4.80804	
4.80499	
4.80194	
4.79736	
4.80347	
4.80499	
4.81567	
4.80957	
4.8111	
4.80804	
4.80652	
4.80652	
4.80652	
4.80804	
4.80652	
4.80499	
4.80347	
4.79736	
4.80194	
4.80499	
4.79736	
4.79736	
4.79584	
4.79431	
4.79431	
4.79584	
4.79889	
4.79889	
4.80042	
4.79889	
4.80194	
4.79736	
4.79431	
4.79279	
4.79126	
4.79279	
4.78973	
4.78973	
4.79584	
4.79431	
4.79279	
4.79279	
4.79279	
4.78668	
4.78363	
4.78973	
4.79126	
4.79126	
4.79584	
4.79431	
4.79431	
4.79279	
4.78973	
4.78973	
4.78668	
4.78058	
4.78058	
4.78516	
4.78363	
4.78363	
4.78363	
4.78363	
4.78058	
4.7821	
4.7821	
4.7821	
4.78058	
4.78058	
4.78058	
4.78058	
4.77905	
4.77905	
4.77905	
4.77448	
4.77753	
4.77753	
4.77448	
4.776	
4.776	
4.776	
4.78058	
4.77448	
4.77295	
4.77142	
4.77448	
4.77295	
4.77295	
4.76685	
4.76837	
4.76532	
4.76532	
4.7699	
4.76837	
4.77142	
4.7699	
4.7699	
4.77142	
4.76685	
4.76532	
4.76837	
4.76532	
4.76685	
4.77753	
4.77142	
4.77448	
4.76379	
4.75922	
4.75159	
4.75159	
4.74854	
4.75464	
4.77448	
4.77905	
4.78058	
4.78668	
4.77905	
4.77448	
4.77142	
4.7699	
4.77142	
4.77142	
4.76837	
4.76227	
4.76379	
4.76532	
4.76685	
4.76685	
4.76837	
4.7699	
4.76685	
4.77295	
4.76837	
4.76685	
4.76685	
4.76837	
4.76685	
4.76837	
4.76532	
4.76532	
4.76227	
4.76379	
4.76074	
4.76532	
4.76227	
4.76074	
4.75616	
4.76532	
4.76685	
4.76379	
4.76379	
4.76074	
4.76074	
4.76074	
4.75464	
4.75464	
4.75159	
4.75922	
4.75464	
4.75922	
4.76074	
4.76227	
4.75616	
4.75922	
4.75616	
4.75616	
4.75922	
4.75922	
4.76074	
4.76074	
4.75922	
4.75922	
4.75311	
4.75464	
4.75006	
4.75311	
4.75006	
4.75464	
4.75464	
4.75922	
4.75464	
4.76379	
4.76074	
4.75616	
4.75311	
4.75159	
4.75464	
4.75616	
4.75922	
4.75311	
4.75616	
4.75616	
4.75616	
4.75616	
4.75464	
4.75464	
4.75311	
4.75006	
4.75464	
4.75006	
4.75311	
4.75311	
4.75616	
4.75159	
4.75006	
4.74701	
4.73938	
4.74548	
4.74548	
4.74548	
4.74548	
4.74396	
4.74701	
4.74701	
4.74854	
4.74548	
4.75006	
4.74548	
4.74396	
4.74548	
4.74548	
4.74701	
4.75006	
4.74854	
4.74854	
4.74854	
4.74548	
4.75006	
4.75006	
4.75159	
4.74854	
4.75616	
4.74854	
4.75159	
4.75006	
4.74854	
4.75159	
4.75159	
4.74854	
4.74854	
4.75311	
4.74854	
4.75311	
4.75311	
4.75311	
4.75464	
4.75159	
4.75006	
4.75464	
4.75006	
4.74854	
4.75159	
4.75159	
4.75311	
4.75159	
4.75006	
4.74854	
4.75159	
4.75311	
4.74548	
4.75006	
4.75006	
4.75159	
4.74701	
4.75159	
4.75006	
4.75006	
4.75159	
4.75006	
4.75006	
4.75159	
4.74701	
4.74854	
4.74701	
4.74854	
4.75006	
4.74854	
4.74548	
4.74854	
4.74548	
4.74854	
4.75006	
4.74548	
4.75159	
4.74701	
4.74396	
4.74701	
4.74548	
4.74548	
4.74396	
4.74548	
4.74548	
4.75006	
4.75159	
4.75159	
4.74854	
4.75006	
4.75006	
4.75159	
4.75159	
4.74854	
4.74548	
4.74243	
4.74243	
4.74396	
4.74243	
4.73785	
4.74091	
4.74396	
4.74091	
4.74243	
4.74701	
4.74854	
4.74701	
4.74701	
4.74548	
4.75006	
4.74548	
4.74396	
4.74854	
4.74396	
4.74854	
4.74396	
4.74701	
4.74548	
4.74548	
4.74243	
4.74396	
4.74396	
4.74396	
4.74396	
4.74701	
4.74548	
4.74548	
4.74854	
4.74701	
4.74396	
4.74243	
4.74396	
4.73938	
4.74396	
4.74243	
4.74396	
4.74396	
4.73938	
4.74396	
4.74701	
4.74396	
4.74243	
4.74396	
4.74548	
4.74396	
4.74396	
4.74396	
4.73938	
4.74091	
4.73328	
4.73633	
4.73785	
4.73022	
4.73785	
4.74091	
4.73633	
4.73785	
4.73785	
4.73938	
4.73785	
4.73633	
4.73328	
4.73328	
4.7348	
4.73785	
4.73633	
4.73633	
4.73938	
4.73785	
4.7348	
4.73785	
4.73633	
4.74091	
4.74091	
4.74854	
4.74243	
4.74548	
4.74396	
4.74091	
4.73938	
4.73785	
4.74396	
4.74243	
4.74243	
4.73938	
4.74548	
4.74243	
4.74396	
4.74548	
4.73938	
4.74396	
4.74396	
4.74396	
4.73938	
4.73938	
4.73938	
4.74091	
4.73938	
4.73785	
4.7348	
4.73938	
4.73785	
4.73328	
4.73785	
4.7348	
4.74243	
4.74243	
4.74091	
4.74243	
4.74548	
4.74091	
4.73938	
4.74091	
4.73633	
4.7348	
4.73328	
4.73328	
4.73175	
4.73328	
4.73785	
4.7348	
4.73785	
4.73785	
4.73633	
4.74091	
4.73633	
4.73785	
4.74396	
4.73633	
4.7348	
4.7348	
4.73633	
4.7348	
4.73328	
4.73328	
4.7348	
4.7348	
4.73633	
4.73938	
4.73785	
4.7348	
4.73633	
4.73633	
4.7348	
4.73633	
4.73633	
4.73938	
4.73633	
4.73328	
4.73175	
4.7348	
4.73785	
4.73633	
4.73633	
4.7348	
4.73633	
4.7348	
4.73633	
4.7348	
4.73633	
4.73785	
4.73175	
4.7348	
4.73328	
4.73785	
4.74091	
4.73785	
4.74091	
4.73785	
4.73022	
4.73938	
4.73938	
4.73938	
4.73785	
4.74701	
4.74091	
4.74091	
4.74701	
4.74396	
4.74091	
4.73938	
4.73938	
4.73785	
4.73785	
4.73785	
4.73938	
4.73785	
4.74243	
4.74091	
4.74243	
4.73938	
4.73938	
4.74091	
4.73785	
4.73785	
4.73785	
4.73633	
4.7348	
4.73022	
4.73328	
4.73328	
4.7287	
4.7287	
4.73633	
4.7348	
4.7348	
4.73633	
4.73785	
4.73938	
4.73785	
4.73633	
4.73175	
4.73633	
4.73022	
4.73328	
4.7348	
4.73785	
4.73785	
4.7348	
4.7348	
4.73938	
4.73785	
4.73633	
4.73633	
4.73938	
4.73633	
4.73633	
4.74091	
4.7348	
4.7348	
4.73175	
4.73633	
4.73633	
4.73328	
4.73785	
4.73785	
4.73938	
4.73633	
4.73938	
4.73938	
4.73633	
4.73785	
4.73785	
4.73785	
4.73633	
4.73328	
4.73633	
4.73785	
4.7348	
4.7348	
4.73785	
4.73785	
4.7348	
4.73785	
4.7348	
4.7348	
4.7348	
4.7348	
4.73938	
4.73785	
4.7348	
4.73328	
4.73633	
4.74091	
4.74396	
4.74854	
4.74396	
4.74548	
4.74243	
4.74091	
4.73938	
4.73785	
4.73175	
4.73785	
4.74243	
4.74243	
4.73938	
4.74548	
4.73785	
4.73785	
4.7287	
4.72717	
4.72412	
4.7287	
4.72412	
4.7348	
4.74396	
4.7348	
4.73328	
4.7348	
4.73328	
4.73633	
4.73633	
4.73175	
4.7348	
4.72717	
4.73175	
4.7287	
4.7287	
4.72717	
4.7287	
4.72717	
4.71954	
4.71954	
4.71802	
4.71954	
4.71802	
4.72717	
4.72717	
4.72717	
4.73633	
4.73938	
4.73938	
4.73175	
4.7287	
4.7348	
4.73633	
4.73175	
4.7348	
4.73175	
4.73328	
4.73328	
4.73022	
4.72717	
4.7348	
4.73328	
4.7287	
4.72717	
4.71954	
4.73328	
4.73633	
4.73938	
4.73328	
4.73022	
4.73328	
4.7348	
4.7287	
4.72717	
4.73175	
4.7287	
4.7226	
4.72717	
4.73328	
4.73328	
4.73785	
4.7348	
4.73785	
4.73785	
4.7287	
4.72412	
4.7226	
4.72717	
4.72717	
4.73938	
4.73938	
4.7348	
4.73328	
4.73175	
4.7348	
4.73785	
4.7348	
4.7287	
4.71954	
4.71344	
4.71039	
4.70734	
4.71039	
4.72107	
4.74243	
4.74854	
4.74091	
4.73328	
4.7348	
4.73328	
4.73633	
4.7287	
4.74396	
4.74243	
4.73328	
4.73328	
4.72717	
4.7226	
4.73022	
4.7287	
4.72412	
4.7287	
4.7348	
4.73328	
4.73022	
4.72717	
4.7287	
4.73175	
4.7348	
4.73022	
4.73175	
4.72412	
4.72717	
4.72717	
4.72412	
4.72412	
4.73328	
4.73022	
4.72412	
4.72717	
4.72717	
4.7348	
4.73328	
4.73328	
4.73785	
4.7348	
4.72717	
4.73022	
4.73022	
4.7226	
4.7226	
4.72107	
4.72107	
4.72412	
4.7287	
4.7348	
4.73633	
4.73175	
4.73022	
4.73633	
4.73785	
4.73328	
4.73633	
4.73633	
4.73175	
4.73022	
4.72717	
4.72412	
4.71954	
4.7226	
4.7287	
4.73175	
4.72412	
4.72717	
4.7287	
4.73175	
4.73022	
4.73022	
4.73328	
4.7287	
4.7287	
4.72717	
4.73022	
4.72717	
4.72107	
4.71497	
4.72107	
4.7226	
4.71802	
4.73022	
4.73175	
4.72717	
4.7287	
4.72717	
4.72717	
4.7287	
4.72412	
4.72717	
4.7287	
4.7226	
4.72717	
4.72412	
4.7226	
4.7226	
4.71954	
4.72412	
4.72717	
4.72717	
4.7226	
4.72717	
4.73022	
4.7226	
4.7226	
4.72107	
4.71649	
4.7226	
4.7226	
4.72412	
4.72107	
4.71649	
4.71497	
4.7226	
4.72717	
4.73175	
4.74091	
4.73022	
4.73022	
4.72717	
4.73022	
4.72412	
4.73022	
4.72412	
4.72717	
4.71954	
4.71954	
4.71802	
4.71954	
4.71954	
4.71802	
4.71649	
4.71954	
4.72107	
4.72107	
4.7226	
4.7226	
4.71954	
4.71497	
4.71497	
4.71497	
4.71649	
4.71497	
4.71191	
4.71191	
4.71191	
4.71954	
4.71954	
4.72107	
4.71954	
4.71649	
4.71954	
4.72107	
4.71954	
4.71649	
4.70734	
4.71191	
4.71191	
4.71191	
4.71039	
4.71039	
4.71039	
4.70886	
4.71191	
4.71344	
4.71344	
4.71649	
4.71344	
4.71649	
4.71649	
4.71802	
4.72107	
4.71802	
4.71802	
4.71802	
4.71191	
4.71039	
4.70734	
4.71039	
4.71039	
4.71344	
4.71649	
4.71497	
4.71191	
4.71802	
4.71954	
4.71802	
4.71954	
4.71497	
4.72107	
4.71954	
4.71802	
4.72107	
4.71954	
4.72107	
4.71802	
4.71802	
4.71649	
4.71039	
4.70428	
4.71039	
4.71497	
4.73175	
4.7287	
4.71039	
4.71802	
4.71497	
4.7226	
4.72107	
4.71191	
4.71802	
4.74243	
4.75159	
4.74854	
4.73938	
4.73633	
4.73328	
4.73175	
4.73175	
4.7287	
4.72717	
4.7287	
4.7287	
4.7287	
4.72412	
4.72717	
4.7226	
4.71954	
4.72107	
4.72717	
4.72412	
4.7226	
4.72412	
4.7287	
4.73022	
4.73175	
4.7226	
4.72107	
4.71802	
4.72107	
4.71802	
4.71191	
4.71039	
4.7226	
4.7287	
4.72717	
4.7287	
4.73022	
4.73022	
4.72717	
4.72412	
4.7226	
4.7226	
4.72107	
4.7226	
4.72412	
4.71649	
4.71497	
4.71802	
4.71344	
4.71802	
4.71649	
4.71497	
4.7226	
4.71802	
4.71344	
4.71802	
4.71497	
4.71802	
4.71497	
4.71802	
4.71649	
4.71649	
4.71497	
4.7226	
4.72107	
4.72107	
4.7226	
4.72412	
4.7226	
4.72107	
4.73175	
4.73022	
4.73022	
4.7287	
4.73022	
4.7287	
4.73175	
4.7226	
4.73175	
4.73633	
4.73175	
4.73328	
4.73633	
4.73785	
4.73633	
4.73938	
4.73633	
4.73938	
4.73785	
4.74091	
4.73938	
4.74854	
4.74701	
4.74243	
4.74091	
4.74243	
4.73785	
4.73785	
4.73633	
4.73785	
4.73938	
4.73633	
4.74091	
4.73633	
4.73633	
4.73938	
4.74243	
4.74243	
4.74396	
4.74701	
4.74243	
4.74243	
4.74091	
4.74548	
4.74091	
4.74548	
4.74396	
4.75311	
4.75006	
4.74548	
4.74396	
4.74548	
4.74854	
4.74548	
4.74854	
4.74854	
4.74548	
4.74243	
4.74854	
4.76074	
4.75311	
4.75006	
4.74701	
4.74854	
4.74701	
4.74701	
4.75006	
4.74701	
4.75006	
4.75464	
4.75464	
4.75616	
4.76074	
4.75006	
4.74396	
4.74396	
4.74701	
4.74396	
4.74243	
4.74396	
4.74701	
4.74701	
4.75311	
4.74854	
4.74701	
4.74548	
4.74701	
4.74854	
4.74396	
4.74701	
4.74548	
4.74396	
4.74396	
4.74701	
4.74243	
4.74243	
4.73785	
4.73938	
4.74091	
4.74548	
4.74396	
4.7348	
4.73938	
4.73938	
4.74243	
4.73785	
4.7348	
4.73328	
4.73022	
4.73328	
4.73022	
4.72717	
4.7287	
4.7287	
4.7287	
4.73175	
4.72412	
4.72412	
4.72107	
4.7287	
4.7287	
4.73022	
4.72717	
4.72412	
4.71802	
4.71802	
4.71954	
4.71649	
4.71497	
4.71344	
4.71344	
4.71191	
4.71191	
4.70886	
4.70581	
4.70886	
4.70734	
4.71039	
4.71039	
4.71191	
4.70886	
4.71039	
4.70428	
4.70886	
4.70734	
4.70276	
4.69971	
4.69818	
4.69818	
4.69666	
4.69818	
4.69055	
4.69055	
4.69513	
4.69818	
4.69666	
4.69208	
4.68903	
4.69208	
4.69513	
4.69208	
4.69513	
4.69055	
4.69971	
4.69208	
4.69666	
4.69513	
4.69055	
4.68597	
4.6875	
4.6875	
4.68903	
4.6875	
4.69055	
4.69818	
4.69513	
4.69208	
4.69666	
4.69666	
4.69513	
4.69208	
4.69208	
4.70123	
4.69513	
4.69208	
4.69666	
4.69818	
4.69818	
4.70123	
4.70428	
4.70123	
4.70428	
4.70581	
4.70581	
4.70428	
4.70123	
4.69818	
4.69666	
4.69513	
4.69208	
4.69513	
4.69055	
4.70581	
4.70886	
4.70581	
4.70276	
4.70276	
4.69818	
4.69971	
4.70123	
4.69818	
4.70123	
4.69666	
4.69666	
4.69208	
4.69513	
4.69513	
4.69055	
4.68597	
4.68903	
4.6875	
4.68445	
4.6875	
4.68445	
4.68597	
4.68292	
4.68445	
4.68292	
4.68292	
4.67834	
4.67682	
4.68292	
4.6814	
4.67987	
4.67682	
4.67529	
4.67987	
4.67834	
4.67682	
4.67834	
4.67224	
4.66766	
4.67224	
4.66614	
4.66766	
4.66766	
4.66309	
4.65851	
4.66614	
4.66309	
4.66614	
4.66919	
4.67072	
4.67377	
4.67834	
4.67377	
4.67529	
4.67377	
4.67682	
4.67987	
4.67682	
4.67682	
4.67529	
4.67377	
4.67529	
4.67834	
4.67987	
4.67224	
4.67529	
4.68445	
4.68597	
4.70581	
4.69971	
4.69513	
4.69208	
4.69055	
4.68903	
4.69055	
4.69513	
4.69513	
4.69055	
4.69666	
4.69971	
4.69666	
4.69818	
4.69818	
4.70123	
4.70428	
4.70428	
4.70734	
4.70276	
4.70123	
4.70123	
4.70581	
4.70581	
4.70734	
4.70581	
4.70581	
4.70581	
4.70581	
4.70276	
4.70428	
4.70581	
4.70886	
4.72107	
4.71954	
4.71954	
4.71497	
4.71649	
4.71802	
4.71954	
4.71649	
4.71497	
4.71344	
4.71191	
4.71649	
4.71802	
4.71802	
4.71344	
4.71649	
4.71649	
4.71649	
4.72107	
4.71649	
4.71954	
4.71649	
4.71802	
4.71802	
4.71802	
4.71191	
4.71954	
4.71497	
4.71649	
4.71497	
4.71191	
4.71344	
4.71497	
4.70886	
4.70428	
4.70734	
4.71039	
4.71954	
4.71954	
4.7226	
4.71802	
4.71497	
4.71344	
4.71649	
4.71649	
4.71802	
4.71344	
4.71497	
4.7226	
4.71954	
4.72412	
4.72107	
4.71802	
4.71649	
4.71649	
4.71802	
4.71954	
4.71649	
4.7226	
4.72107	
4.71802	
4.71802	
4.72717	
4.71954	
4.71954	
4.7226	
4.7226	
4.72412	
4.72717	
4.72107	
4.72107	
4.71497	
4.71649	
4.71191	
4.7287	
4.72412	
4.7287	
4.7287	
4.72717	
4.72412	
4.72412	
4.73328	
4.73175	
4.7287	
4.73175	
4.73328	
4.73022	
4.72717	
4.72717	
4.72717	
4.7226	
4.73328	
4.73785	
4.73633	
4.7287	
4.73328	
4.7348	
4.7348	
4.73175	
4.73328	
4.73785	
4.7287	
4.73328	
4.73175	
4.73328	
4.73022	
4.7348	
4.73328	
4.73328	
4.73328	
4.73022	
4.73022	
4.73785	
4.73175	
4.73175	
4.73633	
4.73328	
4.73328	
4.73328	
4.73328	
4.73328	
4.73022	
4.7348	
4.73022	
4.72717	
4.7226	
4.73022	
4.73022	
4.73328	
4.73175	
4.73175	
4.73175	
4.73328	
4.73175	
4.7348	
4.73328	
4.73175	
4.73328	
4.73022	
4.73633	
4.73633	
4.73328	
4.73175	
4.73328	
4.7287	
4.7287	
4.7287	
4.73175	
4.73175	
4.73328	
4.73328	
4.73022	
4.73633	
4.74243	
4.74243	
4.73633	
4.73633	
4.7348	
4.73633	
4.73328	
4.74091	
4.74091	
4.74243	
4.73328	
4.73633	
4.73633	
4.73785	
4.73938	
4.73328	
4.73175	
4.73022	
4.73175	
4.73328	
4.73022	
4.73022	
4.7226	
4.73022	
4.73328	
4.74701	
4.74701	
4.74854	
4.75159	
4.74701	
4.74548	
4.74243	
4.74548	
4.74091	
4.74243	
4.74243	
4.74243	
4.74396	
4.73785	
4.73633	
4.73633	
4.73633	
4.7348	
4.7348	
4.73785	
4.74701	
4.74548	
4.74396	
4.73785	
4.73938	
4.73938	
4.73633	
4.7348	
4.73938	
4.74091	
4.73785	
4.73938	
4.7348	
4.7348	
4.7348	
4.73328	
4.73328	
4.7287	
4.73022	
4.73175	
4.73633	
4.73938	
4.73938	
4.73633	
4.73328	
4.7287	
4.73022	
4.72412	
4.7287	
4.73022	
4.73328	
4.7287	
4.73022	
4.73175	
4.73633	
4.73022	
4.73022	
4.7348	
4.73175	
4.73022	
4.7348	
4.7348	
4.73022	
4.73022	
4.73175	
4.7348	
4.7348	
4.72412	
4.7287	
4.73175	
4.73633	
4.7348	
4.73633	
4.73633	
4.7348	
4.73633	
4.73633	
4.73633	
4.7348	
4.73175	
4.73328	
4.73022	
4.7287	
4.7287	
4.73328	
4.73022	
4.7348	
4.73022	
4.73633	
4.73785	
4.7348	
4.73785	
4.73633	
4.73175	
4.7348	
4.7348	
4.7348	
4.7287	
4.73633	
4.73633	
4.73328	
4.7348	
4.73633	
4.73328	
4.73175	
4.73633	
4.7348	
4.73633	
4.7348	
4.73328	
4.73633	
4.73785	
4.73785	
4.7348	
4.73328	
4.7348	
4.73175	
4.73175	
4.72717	
4.7287	
4.73175	
4.73175	
4.73022	
4.7226	
4.73175	
4.73175	
4.73175	
4.73022	
4.72717	
4.72717	
4.72107	
4.72717	
4.7226	
4.7287	
4.7287	
4.7287	
4.7226	
4.72717	
4.72717	
4.72412	
4.7287	
4.72412	
4.7226	
4.71802	
4.7226	
4.7226	
4.71954	
4.71649	
4.72107	
4.71802	
4.71954	
4.7226	
4.71954	
4.71954	
4.72107	
4.72107	
4.7226	
4.72107	
4.71649	
4.71344	
4.71802	
4.71802	
4.71497	
4.71802	
4.71497	
4.71802	
4.71497	
4.71191	
4.71344	
4.71191	
4.71649	
4.72412	
4.7287	
4.71802	
4.71954	
4.71802	
4.71497	
4.71802	
4.71954	
4.71344	
4.71649	
4.71649	
4.71802	
4.71802	
4.71954	
4.71802	
4.71954	
4.71802	
4.71954	
4.71954	
4.71802	
4.71954	
4.71497	
4.71649	
4.71954	
4.71649	
4.71191	
4.70886	
4.71344	
4.71802	
4.71344	
4.71649	
4.71497	
4.71649	
4.71649	
4.71649	
4.71497	
4.71497	
4.71497	
4.70734	
4.71191	
4.71039	
4.71039	
4.70581	
4.70886	
4.70734	
4.71039	
4.70734	
4.71039	
4.71039	
4.71039	
4.71344	
4.71649	
4.71191	
4.71039	
4.71649	
4.70734	
4.70581	
4.70581	
4.70734	
4.70581	
4.70886	
4.70734	
4.70886	
4.71191	
4.71191	
4.71344	
4.71191	
4.71191	
4.71497	
4.71497	
4.71497	
4.71344	
4.71191	
4.71039	
4.71191	
4.71039	
4.70886	
4.71039	
4.71191	
4.70734	
4.71191	
4.71497	
4.71039	
4.71344	
4.71191	
4.71191	
4.71191	
4.71039	
4.70886	
4.71039	
4.70734	
4.71039	
4.71039	
4.71039	
4.71039	
4.71344	
4.70886	
4.71191	
4.71039	
4.71191	
4.71344	
4.71497	
4.71191	
4.71344	
4.71802	
4.71344	
4.71039	
4.71191	
4.71344	
4.71497	
4.71344	
4.71344	
4.71649	
4.72107	
4.71497	
4.71954	
4.71497	
4.71802	
4.71802	
4.71649	
4.71344	
4.71649	
4.71344	
4.71039	
4.71954	
4.71497	
4.70886	
4.71191	
4.71039	
4.71039	
4.71344	
4.71344	
4.71497	
4.71497	
4.71649	
4.71344	
4.71344	
4.71191	
4.70734	
4.71649	
4.71039	
4.71344	
4.71039	
4.71191	
4.70886	
4.70886	
4.70886	
4.70886	
4.70886	
4.71191	
4.71344	
4.71649	
4.71344	
4.71039	
4.71497	
4.71039	
4.71039	
4.70886	
4.70886	
4.71039	
4.70734	
4.70276	
4.71039	
4.71039	
4.71191	
4.70886	
4.71191	
4.71039	
4.71039	
4.71039	
4.71039	
4.71191	
4.70886	
4.70886	
4.70886	
4.70734	
4.70734	
4.70886	
4.71039	
4.70734	
4.70734	
4.70886	
4.71191	
4.71191	
4.71344	
4.71191	
4.71344	
4.71039	
4.71191	
4.71191	
4.70581	
4.70581	
4.70734	
4.71039	
4.71191	
4.71191	
4.70734	
4.71039	
4.71039	
4.71191	
4.71191	
4.71191	
4.71344	
4.71344	
4.71802	
4.71191	
4.71191	
4.71497	
4.71191	
4.71039	
4.70581	
4.70428	
4.71039	
4.70886	
4.70428	
4.71344	
4.71039	
4.71039	
4.71191	
4.70886	
4.71191	
4.70886	
4.70734	
4.70886	
4.70886	
4.70428	
4.70276	
4.70276	
4.70428	
4.69971	
4.70428	
4.70123	
4.70581	
4.70886	
4.70886	
4.70428	
4.70886	
4.70734	
4.70734	
4.71039	
4.70734	
4.70581	
4.70581	
4.70734	
4.70734	
4.70886	
4.71039	
4.71039	
4.70734	
4.70886	
4.70734	
4.70886	
4.70886	
4.71191	
4.71649	
4.71191	
4.70886	
4.71039	
4.70886	
4.70581	
4.71039	
4.71039	
4.71497	
4.70886	
4.71039	
4.71649	
4.71191	
4.71344	
4.71039	
4.71497	
4.71039	
4.71191	
4.70581	
4.70123	
4.70276	
4.70581	
4.70428	
4.70581	
4.70734	
4.70734	
4.70734	
4.70581	
4.70886	
4.70734	
4.70581	
4.70428	
4.70581	
4.69971	
4.70123	
4.70276	
4.69971	
4.69971	
4.70123	
4.70123	
4.70276	
4.70276	
4.70123	
4.70276	
4.70123	
4.70123	
4.70581	
4.70886	
4.70581	
4.69971	
4.71191	
4.70123	
4.69818	
4.69971	
4.69666	
4.69971	
4.69971	
4.70276	
4.70734	
4.70734	
4.70428	
4.70886	
4.70734	
4.70886	
4.70886	
4.70734	
4.70581	
4.70886	
4.70734	
4.71039	
4.70886	
4.70581	
4.70123	
4.69971	
4.69971	
4.70428	
4.70734	
4.70581	
4.70886	
4.70886	
4.70886	
4.70886	
4.70581	
4.70276	
4.70276	
4.70428	
4.70276	
4.70581	
4.70428	
4.70734	
4.70581	
4.70734	
4.70581	
4.70734	
4.70734	
4.70886	
4.70734	
4.70734	
4.70734	
4.70581	
4.70886	
4.70581	
4.71191	
4.70734	
4.70428	
4.70581	
4.70581	
4.70581	
4.71191	
4.71039	
4.70886	
4.71191	
4.71191	
4.71497	
4.71039	
4.71191	
4.71191	
4.70886	
4.71039	
4.70886	
4.71344	
4.71039	
4.70734	
4.71039	
4.70734	
4.71039	
4.71191	
4.71344	
4.71191	
4.71191	
4.71191	
4.71344	
4.71191	
4.71191	
4.70886	
4.71191	
4.71039	
4.71039	
4.71649	
4.71649	
4.71649	
4.71954	
4.71649	
4.71802	
4.71497	
4.71344	
4.71954	
4.71802	
4.71802	
4.71649	
4.71802	
4.71497	
4.71649	
4.71497	
4.71649	
4.71497	
4.71954	
4.71802	
4.72107	
4.71649	
4.71497	
4.71497	
4.71497	
4.71344	
4.71497	
4.71344	
4.71497	
4.71649	
4.71954	
4.71649	
4.7226	
4.71954	
4.71649	
4.71954	
4.72107	
4.71802	
4.71954	
4.72412	
4.72107	
4.7226	
4.72107	
4.7226	
4.7226	
4.72107	
4.7226	
4.7226	
4.71954	
4.7226	
4.71954	
4.71497	
4.71649	
4.71191	
4.70581	
4.70886	
4.71344	
4.71497	
4.71802	
4.72412	
4.73175	
4.72717	
4.72717	
4.73022	
4.7287	
4.72717	
4.72412	
4.72412	
4.72107	
4.72107	
4.72717	
4.72107	
4.71954	
4.7226	
4.72412	
4.72412	
4.72412	
4.72412	
4.7226	
4.72412	
4.7226	
4.72412	
4.72412	
4.72107	
4.71649	
4.71802	
4.71802	
4.72107	
4.71954	
4.7226	
4.72412	
4.72717	
4.72107	
4.72412	
4.72412	
4.72107	
4.72107	
4.72412	
4.7226	
4.7226	
4.7226	
4.7287	
4.7226	
4.7226	
4.72107	
4.72107	
4.71954	
4.72107	
4.72412	
4.72412	
4.72107	
4.7226	
4.7226	
4.72107	
4.72717	
4.71954	
4.7226	
4.72107	
4.7226	
4.7226	
4.72717	
4.72107	
4.72107	
4.73022	
4.7287	
4.72412	
4.7226	
4.72412	
4.71802	
4.71649	
4.71649	
4.72107	
4.71497	
4.71497	
4.71649	
4.71802	
4.71649	
4.7226	
4.71649	
4.71954	
4.72107	
4.71954	
4.71954	
4.7226	
4.71954	
4.72107	
4.72412	
4.72107	
4.7226	
4.7226	
4.72412	
4.72717	
4.72107	
4.72412	
4.7226	
4.7226	
4.71954	
4.72717	
4.72717	
4.72717	
4.72717	
4.72717	
4.72107	
4.71954	
4.72412	
4.72717	
4.72107	
4.72107	
4.7226	
4.72107	
4.72412	
4.7226	
4.7226	
4.72717	
4.7287	
4.7226	
4.7287	
4.7287	
4.72412	
4.73022	
4.7287	
4.73022	
4.73022	
4.72412	
4.72412	
4.72412	
4.7226	
4.7287	
4.73175	
4.73175	
4.72412	
4.73022	
4.72717	
4.73175	
4.73175	
4.72717	
4.73022	
4.73328	
4.73022	
4.73022	
4.73022	
4.7287	
4.72412	
4.7226	
4.7287	
4.73175	
4.72717	
4.72412	
4.72717	
4.73175	
4.73328	
4.73175	
4.72412	
4.7226	
4.7287	
4.73022	
4.7287	
4.72412	
4.7226	
4.73022	
4.73328	
4.73022	
4.72717	
4.73022	
4.7287	
4.7287	
4.72412	
4.72717	
4.73022	
4.73175	
4.7348	
4.7348	
4.73022	
4.72717	
4.7226	
4.72412	
4.72412	
4.72717	
4.72412	
4.72717	
4.73022	
4.7287	
4.73022	
4.73022	
4.72717	
4.72717	
4.72717	
4.72412	
4.7226	
4.7226	
4.72107	
4.72412	
4.72412	
4.7226	
4.72107	
4.72107	
4.72107	
4.72412	
4.73022	
4.73175	
4.73022	
4.72412	
4.7226	
4.7226	
4.7226	
4.7226	
4.72412	
4.72717	
4.72412	
4.73175	
4.7287	
4.7287	
4.72717	
4.7287	
4.72717	
4.72412	
4.72717	
4.73175	
4.73022	
4.72717	
4.7226	
4.72412	
4.7287	
4.72717	
4.71802	
4.7226	
4.72412	
4.72717	
4.72717	
4.7226	
4.73022	
4.73175	
4.73022	
4.7287	
4.7287	
4.7226	
4.7226	
4.73022	
4.73022	
4.72717	
4.73022	
4.7287	
4.72717	
4.73022	
4.7287	
4.73175	
4.7287	
4.73022	
4.73022	
4.73175	
4.73328	
4.73022	
4.72717	
4.72717	
4.73175	
4.73022	
4.72717	
4.72717	
4.72412	
4.72717	
4.7287	
4.7287	
4.7287	
4.73175	
4.73175	
4.73175	
4.73022	
4.73175	
4.73175	
4.73022	
4.7287	
4.72412	
4.72717	
4.72717	
4.7226	
4.72412	
4.72717	
4.72717	
4.72412	
4.7226	
4.7287	
4.7287	
4.7348	
4.7287	
4.73175	
4.72412	
4.72717	
4.7287	
4.73328	
4.72717	
4.72717	
4.73022	
4.72412	
4.72412	
4.72717	
4.72412	
4.72107	
4.73022	
4.72717	
4.7287	
4.7287	
4.72717	
4.72717	
4.72717	
4.73022	
4.73022	
4.72717	
4.72717	
4.73022	
4.72412	
4.73175	
4.73022	
4.72412	
4.72412	
4.72717	
4.73022	
4.72717	
4.73022	
4.72412	
4.72717	
4.73022	
4.7287	
4.72107	
4.72412	
4.72107	
4.71954	
4.71954	
4.72107	
4.71802	
4.71802	
4.7226	
4.71954	
4.7226	
4.72107	
4.7226	
4.71954	
4.7226	
4.7226	
4.72412	
4.7287	
4.72107	
4.71954	
4.72412	
4.72717	
4.73022	
4.7287	
4.7226	
4.7287	
4.7287	
4.73328	
4.73328	
4.73175	
4.73022	
4.7348	
4.7348	
4.7287	
4.73328	
4.72717	
4.73175	
4.7287	
4.73328	
4.72717	
4.72717	
4.73328	
4.73175	
4.73328	
4.73175	
4.73328	
4.73328	
4.7348	
4.73175	
4.7348	
4.73175	
4.73022	
4.73022	
4.73175	
4.73328	
4.72717	
4.73022	
4.7287	
4.7348	
4.73328	
4.73633	
4.73175	
4.7348	
4.73175	
4.73328	
4.73633	
4.73328	
4.73022	
4.73175	
4.72717	
4.72717	
4.72717	
4.72717	
4.72717	
4.72412	
4.7287	
4.73175	
4.73328	
4.73328	
4.7348	
4.7348	
4.73022	
4.73175	
4.7287	
4.73175	
4.72717	
4.7287	
4.73022	
4.73022	
4.73022	
4.73175	
4.73175	
4.73328	
4.73022	
4.73175	
4.73022	
4.73175	
4.7287	
4.73175	
4.73633	
4.7348	
4.73175	
4.73175	
4.73175	
4.73175	
4.7287	
4.73175	
4.73328	
4.73633	
4.73328	
4.73633	
4.73175	
4.73022	
4.73022	
4.73175	
4.73633	
4.73175	
4.73175	
4.73175	
4.73175	
4.73022	
4.73175	
4.7348	
4.73175	
4.73022	
4.73175	
4.73175	
4.7348	
4.73328	
4.73328	
4.73022	
4.73175	
4.7287	
4.72717	
4.7287	
4.72412	
4.73022	
4.73022	
4.73328	
4.73175	
4.73175	
4.73022	
4.7348	
4.73175	
4.73328	
4.73328	
4.73175	
4.72717	
4.73175	
4.73633	
4.7348	
4.73022	
4.73022	
4.73022	
4.73175	
4.7348	
4.7348	
4.73022	
4.7348	
4.7348	
4.73938	
4.7348	
4.73633	
4.73175	
4.7348	
4.73328	
4.73175	
4.73022	
4.73175	
4.7287	
4.73175	
4.73175	
4.73328	
4.73328	
4.73328	
4.73175	
4.7348	
4.7348	
4.73328	
4.73022	
4.73175	
4.73175	
4.7348	
4.7348	
4.7348	
4.72412	
4.73022	
4.73175	
4.73022	
4.73022	
4.73175	
4.73328	
4.73328	
4.7348	
4.7348	
4.73938	
4.73633	
4.73633	
4.73785	
4.73938	
4.73785	
4.7348	
4.73785	
4.73328	
4.73328	
4.73022	
4.73175	
4.73022	
4.73328	
4.73328	
4.74243	
4.73785	
4.7348	
4.73633	
4.7348	
4.7348	
4.73633	
4.73785	
4.73633	
4.73633	
4.73785	
4.73633	
4.73785	
4.73633	
4.73938	
4.74091	
4.74091	
4.73785	
4.73633	
4.73175	
4.73938	
4.7348	
4.7348	
4.73175	
4.73328	
4.72717	
4.7348	
4.73328	
4.73328	
4.73328	
4.73328	
4.7348	
4.7348	
4.7348	
4.7348	
4.73633	
4.73938	
4.73633	
4.73633	
4.73633	
4.73633	
4.73633	
4.73328	
4.73633	
4.73633	
4.73785	
4.73938	
4.73938	
4.74091	
4.73938	
4.74396	
4.73938	
4.73785	
4.74396	
4.74091	
4.73633	
4.7348	
4.74091	
4.73938	
4.73938	
4.73785	
4.73938	
4.74548	
4.74243	
4.74396	
4.73938	
4.74091	
4.74243	
4.74548	
4.74548	
4.74701	
4.74243	
4.74243	
4.73938	
4.74091	
4.7348	
4.74091	
4.73785	
4.74091	
4.74701	
4.74396	
4.74548	
4.74091	
4.74548	
4.74548	
4.74701	
4.74548	
4.74396	
4.74548	
4.74396	
4.74548	
4.73938	
4.74091	
4.74091	
4.74396	
4.73938	
4.73938	
4.74396	
4.74548	
4.74854	
4.75006	
4.74701	
4.74701	
4.74701	
4.74548	
4.74854	
4.74548	
4.74243	
4.74091	
4.74396	
4.74243	
4.74243	
4.74396	
4.74091	
4.74396	
4.74091	
4.74243	
4.74548	
4.74548	
4.74548	
4.74396	
4.74396	
4.74548	
4.74548	
4.74548	
4.73938	
4.74701	
4.74396	
4.74243	
4.74396	
4.74548	
4.74854	
4.75006	
4.74854	
4.74701	
4.75159	
4.74548	
4.74396	
4.74396	
4.74243	
4.74548	
4.74396	
4.74243	
4.74548	
4.74243	
4.74243	
4.74396	
4.74243	
4.74243	
4.74701	
4.74701	
4.74701	
4.74701	
4.75006	
4.74396	
4.74396	
4.74243	
4.74091	
4.73785	
4.74243	
4.74243	
4.74854	
4.75464	
4.74854	
4.75006	
4.75006	
4.75006	
4.75159	
4.75616	
4.75311	
4.75159	
4.74548	
4.74548	
4.74243	
4.74396	
4.74243	
4.74091	
4.74243	
4.73938	
4.74701	
4.74701	
4.74701	
4.74854	
4.74701	
4.74701	
4.74854	
4.74701	
4.74396	
4.74396	
4.74548	
4.74548	
4.74548	
4.74548	
4.74701	
4.74396	
4.74091	
4.74091	
4.74243	
4.73785	
4.74701	
4.75311	
4.74701	
4.74854	
4.74854	
4.74548	
4.74091	
4.74243	
4.74396	
4.74091	
4.73938	
4.73785	
4.74243	
4.74396	
4.74091	
4.74396	
4.74548	
4.74548	
4.74091	
4.74396	
4.74548	
4.74548	
4.73938	
4.74243	
4.74091	
4.73785	
4.73328	
4.7348	
4.73938	
4.73938	
4.74701	
4.75006	
4.74396	
4.74396	
4.74396	
4.74396	
4.74701	
4.74548	
4.73938	
4.74243	
4.73633	
4.74091	
4.73938	
4.74243	
4.74396	
4.74243	
4.73785	
4.74243	
4.74396	
4.74243	
4.74548	
4.75159	
4.74396	
4.74701	
4.75311	
4.74396	
4.74243	
4.74396	
4.74243	
4.74243	
4.74243	
4.74396	
4.74396	
4.74396	
4.74091	
4.74701	
4.74243	
4.74701	
4.74396	
4.74854	
4.75006	
4.75159	
4.74854	
4.74854	
4.75006	
4.74701	
4.74396	
4.74701	
4.74548	
4.74396	
4.74701	
4.74701	
4.74701	
4.74701	
4.74548	
4.75006	
4.75159	
4.74854	
4.74396	
4.75159	
4.74701	
4.75006	
4.74701	
4.74854	
4.74396	
4.74701	
4.74396	
4.74548	
4.74701	
4.74701	
4.74854	
4.74548	
4.74854	
4.74701	
4.75464	
4.75159	
4.75464	
4.75159	
4.74701	
4.74701	
4.74548	
4.75006	
4.75311	
4.74701	
4.74701	
4.75311	
4.74854	
4.75159	
4.74854	
4.75006	
4.74854	
4.75159	
4.74854	
4.75159	
4.75464	
4.75159	
4.74548	
4.75159	
4.75006	
4.74854	
4.75159	
4.75311	
4.75922	
4.75616	
4.75311	
4.75159	
4.75006	
4.74854	
4.75159	
4.75159	
4.74396	
4.75006	
4.74854	
4.74701	
4.74701	
4.74548	
4.74396	
4.74701	
4.74701	
4.74396	
4.75006	
4.75159	
4.75006	
4.74854	
4.75006	
4.74701	
4.74548	
4.74701	
4.74396	
4.74396	
4.74701	
4.74396	
4.75159	
4.74701	
4.74701	
4.74854	
4.74701	
4.74854	
4.75006	
4.75006	
4.74701	
4.74854	
4.75006	
4.75006	
4.74243	
4.74243	
4.74091	
4.74243	
4.74243	
4.74243	
4.74396	
4.74701	
4.75006	
4.75159	
4.74701	
4.75159	
4.74854	
4.74854	
4.74396	
4.74854	
4.74701	
4.74701	
4.74396	
4.75006	
4.74701	
4.74548	
4.74396	
4.74854	
4.74854	
4.74854	
4.75006	
4.75159	
4.75311	
4.75159	
4.75311	
4.74396	
4.75006	
4.74396	
4.74548	
4.74701	
4.75464	
4.75159	
4.75464	
4.75159	
4.75311	
4.75616	
4.76074	
4.75464	
4.76074	
4.75922	
4.75464	
4.75922	
4.75464	
4.75311	
4.75006	
4.74701	
4.74854	
4.75311	
4.75311	
4.74854	
4.75159	
4.75006	
4.75311	
4.75159	
4.75159	
4.75006	
4.74854	
4.74548	
4.74701	
4.74854	
4.74396	
4.74548	
4.74548	
4.74396	
4.74243	
4.74701	
4.74396	
4.74548	
4.74548	
4.74548	
4.75006	
4.75311	
4.75006	
4.74854	
4.75159	
4.74854	
4.75006	
4.74701	
4.74854	
4.74701	
4.74396	
4.74701	
4.75159	
4.75159	
4.74701	
4.74854	
4.75006	
4.75006	
4.75006	
4.75159	
4.74548	
4.74854	
4.75006	
4.75159	
4.75311	
4.74701	
4.74396	
4.74548	
4.74854	
4.74548	
4.74854	
4.74854	
4.74854	
4.74854	
4.74854	
4.75006	
4.74548	
4.73938	
4.74243	
4.74243	
4.74091	
4.74396	
4.74243	
4.74091	
4.73633	
4.74091	
4.73633	
4.73938	
4.73938	
4.73785	
4.73938	
4.74396	
4.74396	
4.74091	
4.74396	
4.74091	
4.74243	
4.74091	
4.74091	
4.73938	
4.73938	
4.74396	
4.75006	
4.74854	
4.74854	
4.75006	
4.75311	
4.75159	
4.75159	
4.75311	
4.75464	
4.75616	
4.75159	
4.74854	
4.75006	
4.75159	
4.74701	
4.75006	
4.75311	
4.75311	
4.75311	
4.75159	
4.75159	
4.75159	
4.75616	
4.75464	
4.75159	
4.75006	
4.74854	
4.74854	
4.74701	
4.74396	
4.74854	
4.74854	
4.74701	
4.74548	
4.74548	
4.74854	
4.74854	
4.74854	
4.75006	
4.75311	
4.75159	
4.75159	
4.75159	
4.74854	
4.75159	
4.75159	
4.74854	
4.74548	
4.75006	
4.74701	
4.75311	
4.75006	
4.74854	
4.74854	
4.75159	
4.75006	
4.74854	
4.75311	
4.75006	
4.75464	
4.75006	
4.75616	
4.75311	
4.74548	
4.74701	
4.74396	
4.74548	
4.74701	
4.74548	
4.74854	
4.75159	
4.75006	
4.74854	
4.75006	
4.74701	
4.74854	
4.74548	
4.74854	
4.74548	
4.74548	
4.75006	
4.74854	
4.74701	
4.74854	
4.74243	
4.74548	
4.74548	
4.74701	
4.75159	
4.75311	
4.75006	
4.75159	
4.75006	
4.74854	
4.75006	
4.75159	
4.74854	
4.74548	
4.74701	
4.74548	
4.74854	
4.74701	
4.74243	
4.74396	
4.74701	
4.74701	
4.74854	
4.75159	
4.75006	
4.75159	
4.75159	
4.75159	
4.75006	
4.74854	
4.74396	
4.74548	
4.74548	
4.75159	
4.74854	
4.74854	
4.74548	
4.74854	
4.75006	
4.75006	
4.75006	
4.74701	
4.74854	
4.75006	
4.74854	
4.75006	
4.75006	
4.75006	
4.74701	
4.75006	
4.75159	
4.75006	
4.74701	
4.75159	
4.74854	
4.74854	
4.75159	
4.75006	
4.74548	
4.74854	
4.74548	
4.74854	
4.74548	
4.74396	
4.74854	
4.74548	
4.74701	
4.74548	
4.74396	
4.74548	
4.74701	
4.74396	
4.74548	
4.74548	
4.74701	
4.75006	
4.74701	
4.75464	
4.75159	
4.74548	
4.74548	
4.74548	
4.74854	
4.75006	
4.74701	
4.74854	
4.75006	
4.75159	
4.74854	
4.74548	
4.74701	
4.74548	
4.74548	
4.75159	
4.74701	
4.74701	
4.74854	
4.74701	
4.74701	
4.74854	
4.74701	
4.75006	
4.74701	
4.75311	
4.75006	
4.75311	
4.75159	
4.75159	
4.75159	
4.75159	
4.75311	
4.75006	
4.74548	
4.74243	
4.74548	
4.74243	
4.74701	
4.74701	
4.74091	
4.74396	
4.74548	
4.74701	
4.74701	
4.75159	
4.74548	
4.74548	
4.74854	
4.74701	
4.74701	
4.74091	
4.73938	
4.73785	
4.74548	
4.74701	
4.74701	
4.74854	
4.74396	
4.74548	
4.74854	
4.75006	
4.74854	
4.74701	
4.74854	
4.75006	
4.75006	
4.74854	
4.74854	
4.74701	
4.74854	
4.75159	
4.75159	
4.75159	
4.74548	
4.75159	
4.75311	
4.75159	
4.75159	
4.74854	
4.75159	
4.75159	
4.75159	
4.75159	
4.75159	
4.74854	
4.74854	
4.75006	
4.75616	
4.75311	
4.75159	
4.75311	
4.75006	
4.75464	
4.75311	
4.75464	
4.75616	
4.75311	
4.75616	
4.75922	
4.75159	
4.74854	
4.74396	
4.74854	
4.75006	
4.74854	
4.75006	
4.75311	
4.75159	
4.75311	
4.75616	
4.75311	
4.75159	
4.74854	
4.75311	
4.75922	
4.75311	
4.75464	
4.75311	
4.75159	
4.74701	
4.75311	
4.75311	
4.75159	
4.75311	
4.75311	
4.75311	
4.75922	
4.75922	
4.75922	
4.75311	
4.75311	
4.75464	
4.75159	
4.75464	
4.75311	
4.75464	
4.75159	
4.75464	
4.75464	
4.75159	
4.75311	
4.75311	
4.75464	
4.75311	
4.75006	
4.75159	
4.74854	
4.75311	
4.75464	
4.74854	
4.75159	
4.75159	
4.75159	
4.75159	
4.75159	
4.75922	
4.75922	
4.76227	
4.75464	
4.76227	
4.75311	
4.75006	
4.74701	
4.74854	
4.75006	
4.75006	
4.75159	
4.74701	
4.75311	
4.74854	
4.75159	
4.75159	
4.75006	
4.75006	
4.75464	
4.75464	
4.75616	
4.75616	
4.75464	
4.75311	
4.75464	
4.75311	
4.75159	
4.75616	
4.75006	
4.75311	
4.75006	
4.75311	
4.75464	
4.75311	
4.75464	
4.75616	
4.75464	
4.75922	
4.75311	
4.75311	
4.75311	
4.75311	
4.75922	
4.75311	
4.75311	
4.75311	
4.75464	
4.75616	
4.75159	
4.75464	
4.75616	
4.76379	
4.75922	
4.76685	
4.75922	
4.76074	
4.75311	
4.75922	
4.75922	
4.75464	
4.75922	
4.76379	
4.76379	
4.75922	
4.76227	
4.75922	
4.75616	
4.75922	
4.76074	
4.76379	
4.76379	
4.76074	
4.76379	
4.75922	
4.76074	
4.76379	
4.75616	
4.75922	
4.75311	
4.75616	
4.75616	
4.75616	
4.75616	
4.75311	
4.75464	
4.75616	
4.75464	
4.76074	
4.76227	
4.75616	
4.75311	
4.75922	
4.76227	
4.75922	
4.75464	
4.75464	
4.75311	
4.75311	
4.75311	
4.75464	
4.75616	
4.76379	
4.76227	
4.76532	
4.75922	
4.75616	
4.75616	
4.75922	
4.76227	
4.76227	
4.76074	
4.75922	
4.75616	
4.75616	
4.75922	
4.75922	
4.75922	
4.75464	
4.76227	
4.76227	
4.75922	
4.75616	
4.75464	
4.75616	
4.75616	
4.75616	
4.75311	
4.75159	
4.75159	
4.75464	
4.75922	
4.76074	
4.75616	
4.75616	
4.75922	
4.75922	
4.76074	
4.75922	
4.76379	
4.76227	
4.76074	
4.76227	
4.76685	
4.76074	
4.75616	
4.75922	
4.75922	
4.75922	
4.75922	
4.76227	
4.75922	
4.76532	
4.76532	
4.76685	
4.76227	
4.75922	
4.76074	
4.76227	
4.76379	
4.76532	
4.76379	
4.76074	
4.76227	
4.75616	
4.76227	
4.76227	
4.76074	
4.75922	
4.76074	
4.76379	
4.76227	
4.76379	
4.76532	
4.76074	
4.76379	
4.76685	
4.76074	
4.76379	
4.76227	
4.76227	
4.76074	
4.76227	
4.76379	
4.76532	
4.76227	
4.76532	
4.76685	
4.76532	
4.76379	
4.76227	
4.76074	
4.76532	
4.76379	
4.76227	
4.76074	
4.76074	
4.76074	
4.76227	
4.76074	
4.76227	
4.76074	
4.76685	
4.76532	
4.76685	
4.76074	
4.76074	
4.76227	
4.75922	
4.75922	
4.76074	
4.75922	
4.76227	
4.76227	
4.75922	
4.75922	
4.76532	
4.75922	
4.75922	
4.75922	
4.76227	
4.76227	
4.75922	
4.76074	
4.75464	
4.75922	
4.75464	
4.75464	
4.75922	
4.75159	
4.75616	
4.75616	
4.75464	
4.75922	
4.75922	
4.76074	
4.76074	
4.75922	
4.76074	
4.75922	
4.76074	
4.75922	
4.75922	
4.76074	
4.76074	
4.75311	
4.75464	
4.75311	
4.75616	
4.75922	
4.75464	
4.75464	
4.75922	
4.76074	
4.76685	
4.76074	
4.76074	
4.76379	
4.76227	
4.76074	
4.75922	
4.76074	
4.75922	
4.75922	
4.76227	
4.76227	
4.76685	
4.76074	
4.76379	
4.76227	
4.76074	
4.75922	
4.76227	
4.76074	
4.76074	
4.76227	
4.76227	
4.76379	
4.75616	
4.75311	
4.76074	
4.76074	
4.76074	
4.77142	
4.76532	
4.76227	
4.76379	
4.76227	
4.76227	
4.76227	
4.76532	
4.75616	
4.76685	
4.76532	
4.76685	
4.76379	
4.76532	
4.76379	
4.76532	
4.76379	
4.76532	
4.76837	
4.76532	
4.76685	
4.7699	
4.76837	
4.76837	
4.77448	
4.76532	
4.76379	
4.76379	
4.76227	
4.76532	
4.76532	
4.76532	
4.76532	
4.76837	
4.76837	
4.76685	
4.76685	
4.76685	
4.76532	
4.76685	
4.76837	
4.7699	
4.76532	
4.76685	
4.76532	
4.76379	
4.76227	
4.76532	
4.76379	
4.76227	
4.76532	
4.76379	
4.76685	
4.77142	
4.76837	
4.76837	
4.7699	
4.76837	
4.76074	
4.76379	
4.76532	
4.76685	
4.76379	
4.76532	
4.76379	
4.76685	
4.76379	
4.76685	
4.76837	
4.77142	
4.77295	
4.77295	
4.7699	
4.76837	
4.77448	
4.77142	
4.77142	
4.76837	
4.76532	
4.76532	
4.76379	
4.76379	
4.76685	
4.77448	
4.77142	
4.77142	
4.77142	
4.77142	
4.77142	
4.77142	
4.7699	
4.76685	
4.77142	
4.7699	
4.76685	
4.76685	
4.76532	
4.76532	
4.76685	
4.76532	
4.76837	
4.77142	
4.77295	
4.77295	
4.77142	
4.77295	
4.77295	
4.7699	
4.76379	
4.76685	
4.76532	
4.7699	
4.76837	
4.76532	
4.76685	
4.76379	
4.76227	
4.76379	
4.76379	
4.76532	
4.76227	
4.76379	
4.76227	
4.76532	
4.7699	
4.76685	
4.76532	
4.76379	
4.76837	
4.76379	
4.76379	
4.76379	
4.76532	
4.76837	
4.76379	
4.76532	
4.76685	
4.77142	
4.76685	
4.77295	
4.77295	
4.7699	
4.776	
4.77448	
4.77295	
4.77448	
4.77295	
4.77142	
4.77142	
4.76837	
4.7699	
4.77142	
4.77448	
4.776	
4.776	
4.77753	
4.77448	
4.77295	
4.77448	
4.77753	
4.77142	
4.776	
4.776	
4.77448	
4.776	
4.77448	
4.77448	
4.77448	
4.77142	
4.77448	
4.77753	
4.77753	
4.77448	
4.776	
4.776	
4.77448	
4.77753	
4.77448	
4.77295	
4.77295	
4.77295	
4.77448	
4.77295	
4.776	
4.77142	
4.77905	
4.77295	
4.77448	
4.7699	
4.77295	
4.77295	
4.77142	
4.77295	
4.77295	
4.77448	
4.77142	
4.77142	
4.77905	
4.77753	
4.77295	
4.77905	
4.77905	
4.78058	
4.776	
4.77295	
4.77142	
4.77295	
4.76837	
4.77295	
4.77448	
4.77142	
4.77448	
4.77142	
4.776	
4.77295	
4.77295	
4.776	
4.77753	
4.77142	
4.77448	
4.77753	
4.776	
4.776	
4.77142	
4.77448	
4.77142	
4.77448	
4.77448	
4.77295	
4.77142	
4.76837	
4.77142	
4.77448	
4.77295	
4.76837	
4.77142	
4.77142	
4.77295	
4.77295	
4.77295	
4.77295	
4.77448	
4.77448	
4.77295	
4.77448	
4.76837	
4.76685	
4.77142	
4.7699	
4.76685	
4.77142	
4.77142	
4.7699	
4.77295	
4.77448	
4.77448	
4.77753	
4.77142	
4.77295	
4.77295	
4.77448	
4.77753	
4.77448	
4.77295	
4.77295	
4.77142	
4.77295	
4.77295	
4.77295	
4.76837	
4.77448	
4.77448	
4.77448	
4.77905	
4.77905	
4.776	
4.77448	
4.77448	
4.77448	
4.77753	
4.77295	
4.77142	
4.77905	
4.77295	
4.77448	
4.77753	
4.77295	
4.77142	
4.77448	
4.776	
4.776	
4.77142	
4.77295	
4.77753	
4.776	
4.77295	
4.7699	
4.76685	
4.77142	
4.76837	
4.77295	
4.77142	
4.77448	
4.77448	
4.77142	
4.77295	
4.776	
4.77142	
4.7699	
4.7699	
4.77142	
4.77142	
4.77295	
4.77142	
4.77142	
4.7699	
4.76685	
4.76837	
4.76532	
4.76532	
4.77295	
4.77142	
4.77142	
4.76837	
4.77142	
4.76837	
4.77295	
4.76837	
4.7699	
4.76837	
4.76837	
4.76532	
4.7699	
4.76685	
4.76685	
4.77142	
4.77295	
4.77142	
4.7699	
4.77142	
4.77142	
4.77142	
4.77448	
4.776	
4.77448	
4.7699	
4.76837	
4.77142	
4.77295	
4.77142	
4.76837	
4.77142	
4.77448	
4.776	
4.77142	
4.77753	
4.776	
4.77448	
4.77142	
4.77295	
4.77448	
4.776	
4.77448	
4.776	
4.776	
4.77448	
4.77448	
4.77753	
4.776	
4.77753	
4.776	
4.77905	
4.77905	
4.77905	
4.78058	
4.776	
4.77753	
4.776	
4.77753	
4.77753	
4.77753	
4.77448	
4.77753	
4.77905	
4.77753	
4.78363	
4.77753	
4.78363	
4.77905	
4.78516	
4.77905	
4.78058	
4.7821	
4.7821	
4.77753	
4.77448	
4.776	
4.776	
4.77753	
4.77905	
4.776	
4.77905	
4.77905	
4.77753	
4.7821	
4.7821	
4.776	
4.776	
4.77905	
4.776	
4.77753	
4.77448	
4.776	
4.7821	
4.77753	
4.77753	
4.77753	
4.77905	
4.77753	
4.77753	
4.78516	
4.78363	
4.7821	
4.77753	
4.78058	
4.77905	
4.77905	
4.77448	
4.776	
4.776	
4.77448	
4.77905	
4.78363	
4.7821	
4.78058	
4.7821	
4.78058	
4.7821	
4.77905	
4.78363	
4.78363	
4.78516	
4.77753	
4.78058	
4.77905	
4.77448	
4.77295	
4.77753	
4.776	
4.776	
4.776	
4.776	
4.77905	
4.77753	
4.77753	
4.78058	
4.77905	
4.77142	
4.77753	
4.78058	
4.77905	
4.77448	
4.7699	
4.77295	
4.77448	
4.78058	
4.77753	
4.77905	
4.77905	
4.78058	
4.7821	
4.78058	
4.7821	
4.7821	
4.78058	
4.77905	
4.77905	
4.776	
4.77448	
4.77905	
4.776	
4.77905	
4.7821	
4.77753	
4.776	
4.77905	
4.7821	
4.7821	
4.77905	
4.7821	
4.7821	
4.78363	
4.78058	
4.78516	
4.77753	
4.776	
4.77448	
4.77295	
4.77753	
4.77905	
4.77753	
4.776	
4.77448	
4.78058	
4.78058	
4.78516	
4.78363	
4.77905	
4.78058	
4.78363	
4.77905	
4.78058	
4.77905	
4.77753	
4.77448	
4.77142	
4.77448	
4.776	
4.77448	
4.776	
4.77905	
4.78363	
4.78363	
4.7821	
4.78363	
4.7821	
4.78363	
4.7821	
4.78058	
4.77753	
4.77753	
4.77753	
4.78516	
4.78363	
4.7821	
4.7821	
4.78516	
4.78516	
4.78516	
4.78363	
4.78668	
4.7821	
4.78363	
4.78668	
4.7821	
4.78668	
4.78973	
4.78973	
4.78516	
4.78668	
4.78973	
4.78516	
4.78668	
4.78668	
4.78668	
4.78668	
4.78516	
4.78058	
4.78516	
4.78516	
4.7821	
4.7821	
4.78363	
4.79126	
4.78363	
4.78973	
4.79126	
4.78668	
4.78363	
4.78973	
4.78973	
4.78516	
4.78973	
4.78973	
4.78668	
4.78516	
4.78516	
4.78363	
4.78363	
4.78516	
4.78516	
4.78516	
4.78668	
4.78516	
4.78668	
4.78668	
4.78973	
4.78973	
4.79126	
4.78973	
4.78973	
4.78363	
4.78516	
4.79126	
4.78668	
4.7821	
4.78668	
4.78516	
4.78668	
4.78668	
4.79279	
4.78668	
4.79126	
4.79279	
4.79279	
4.79126	
4.79279	
4.78516	
4.78516	
4.78668	
4.78363	
4.78363	
4.78058	
4.7821	
4.78668	
4.79126	
4.79736	
4.78973	
4.7821	
4.79431	
4.79126	
4.79126	
4.79126	
4.78668	
4.78516	
4.78363	
4.7821	
4.78363	
4.78668	
4.7821	
4.78516	
4.79126	
4.78973	
4.79126	
4.78668	
4.78668	
4.78973	
4.78516	
4.78516	
4.78973	
4.78668	
4.78973	
4.79126	
4.78973	
4.78668	
4.78516	
4.78516	
4.78058	
4.78668	
4.79126	
4.78516	
4.7821	
4.79126	
4.79126	
4.79431	
4.79279	
4.79279	
4.78973	
4.78973	
4.79279	
4.79431	
4.78973	
4.79126	
4.78363	
4.78058	
4.78363	
4.79126	
4.7821	
4.78363	
4.78668	
4.78973	
4.79279	
4.79279	
4.79126	
4.79126	
4.78973	
4.79279	
4.79279	
4.79126	
4.78516	
4.78668	
4.78973	
4.79126	
4.79431	
4.79126	
4.79126	
4.79126	
4.78973	
4.78668	
4.79431	
4.79126	
4.78973	
4.79126	
4.79431	
4.78973	
4.78363	
4.79126	
4.79431	
4.79279	
4.79584	
4.79584	
4.79889	
4.80042	
4.79736	
4.80042	
4.79889	
4.79736	
4.79431	
4.79126	
4.79279	
4.79126	
4.79279	
4.79126	
4.79126	
4.79126	
4.79126	
4.79431	
4.79431	
4.79279	
4.79279	
4.79584	
4.79736	
4.79584	
4.79736	
4.79736	
4.79584	
4.79431	
4.78973	
4.78973	
4.78516	
4.78668	
4.78668	
4.78973	
4.78668	
4.78973	
4.78973	
4.78973	
4.79126	
4.79126	
4.79431	
4.79126	
4.79279	
4.79584	
4.79584	
4.78973	
4.79126	
4.78516	
4.78668	
4.78973	
4.78973	
4.78668	
4.7821	
4.78363	
4.78973	
4.79584	
4.78668	
4.78363	
4.7821	
4.78363	
4.78668	
4.78363	
4.7821	
4.78363	
4.78668	
4.78363	
4.78668	
4.79279	
4.78973	
4.7821	
4.78668	
4.78973	
4.78973	
4.78668	
4.78516	
4.78668	
4.78973	
4.79126	
4.78363	
4.78668	
4.7821	
4.78668	
4.78668	
4.79279	
4.79126	
4.79279	
4.79126	
4.79431	
4.79584	
4.79431	
4.79279	
4.79279	
4.78973	
4.79126	
4.79126	
4.78668	
4.78668	
4.78363	
4.78363	
4.78516	
4.78973	
4.79126	
4.78973	
4.79431	
4.79431	
4.79736	
4.79431	
4.79126	
4.79126	
4.79126	
4.79584	
4.79431	
4.79126	
4.78973	
4.78973	
4.78668	
4.79126	
4.79126	
4.79126	
4.78668	
4.79126	
4.79431	
4.79126	
4.79431	
4.79431	
4.79431	
4.79126	
4.79279	
4.79126	
4.79279	
4.78516	
4.79126	
4.78973	
4.78973	
4.78668	
4.78668	
4.78516	
4.78363	
4.78973	
4.79126	
4.78516	
4.78973	
4.78363	
4.78668	
4.78668	
4.78516	
4.78973	
4.78363	
4.78668	
4.78363	
4.78516	
4.78516	
4.7821	
4.78973	
4.78668	
4.79279	
4.78668	
4.78973	
4.78363	
4.78363	
4.78363	
4.78516	
4.78668	
4.78973	
4.78668	
4.78516	
4.78668	
4.78973	
4.78363	
4.78973	
4.78973	
4.79279	
4.79126	
4.78973	
4.79431	
4.79279	
4.79431	
4.79279	
4.78668	
4.78973	
4.78363	
4.78668	
4.78668	
4.79126	
4.78516	
4.7821	
4.7821	
4.7821	
4.78516	
4.77905	
4.78668	
4.78516	
4.78516	
4.78973	
4.78973	
4.79126	
4.78973	
4.79126	
4.78668	
4.79279	
4.79431	
4.79431	
4.79279	
4.79431	
4.79279	
4.79431	
4.79279	
4.79431	
4.79431	
4.79431	
4.79736	
4.79584	
4.79279	
4.79279	
4.78973	
4.78973	
4.79736	
4.79736	
4.79431	
4.79584	
4.79584	
4.80194	
4.79889	
4.79889	
4.79736	
4.79889	
4.79736	
4.79736	
4.79736	
4.79584	
4.79126	
4.79279	
4.78973	
4.78973	
4.79126	
4.79126	
4.79126	
4.79431	
4.79279	
4.79126	
4.79584	
4.79126	
4.79431	
4.79431	
4.79126	
4.79126	
4.79126	
4.79584	
4.79889	
4.80042	
4.80347	
4.79736	
4.79736	
4.79584	
4.80042	
4.80499	
4.79736	
4.80042	
4.79889	
4.79584	
4.79736	
4.79431	
4.79279	
4.79736	
4.79431	
4.79889	
4.79584	
4.79889	
4.79736	
4.79736	
4.79736	
4.79584	
4.79279	
4.79736	
4.79889	
4.79736	
4.79889	
4.79736	
4.79889	
4.79889	
4.79279	
4.80194	
4.80194	
4.79889	
4.80347	
4.80194	
4.80347	
4.80347	
4.80042	
4.80042	
4.80499	
4.80194	
4.79736	
4.79736	
4.79584	
4.80042	
4.79736	
4.79736	
4.79889	
4.80042	
4.79736	
4.79889	
4.79889	
4.79889	
4.80194	
4.80194	
4.79889	
4.79736	
4.80347	
4.80042	
4.80347	
4.80042	
4.79889	
4.80194	
4.80347	
4.80347	
4.80347	
4.80347	
4.80042	
4.80042	
4.80042	
4.80804	
4.80957	
4.80957	
4.8111	
4.8111	
4.80499	
4.80652	
4.80347	
4.80347	
4.79736	
4.80194	
4.80194	
4.79584	
4.80194	
4.80347	
4.80347	
4.80347	
4.80042	
4.80194	
4.80499	
4.80804	
4.80347	
4.80499	
4.80194	
4.80499	
4.80499	
4.80347	
4.80194	
4.80499	
4.80042	
4.80347	
4.80042	
4.80194	
4.80499	
4.80804	
4.80194	
4.80347	
4.8111	
4.80194	
4.80042	
4.80042	
4.79889	
4.80194	
4.80042	
4.80652	
4.80347	
4.80499	
4.80652	
4.80652	
4.80347	
4.80499	
4.80499	
4.80804	
4.80804	
4.80957	
4.80347	
4.80347	
4.80652	
4.80347	
4.79889	
4.80347	
4.80194	
4.79889	
4.80347	
4.80347	
4.80957	
4.81415	
4.8111	
4.81262	
4.81415	
4.8111	
4.80804	
4.80957	
4.80194	
4.80652	
4.80652	
4.80804	
4.80804	
4.81262	
4.81262	
4.81262	
4.81262	
4.8111	
4.81415	
4.81415	
4.8172	
4.8172	
4.81873	
4.80957	
4.8111	
4.80957	
4.80957	
4.8111	
4.8111	
4.80652	
4.81262	
4.81415	
4.81262	
4.81262	
4.81415	
4.81415	
4.81262	
4.81262	
4.8111	
4.81262	
4.81262	
4.8111	
4.80957	
4.8111	
4.80499	
4.80652	
4.80957	
4.80652	
4.81415	
4.81415	
4.8172	
4.82178	
4.81873	
4.82178	
4.8172	
4.81567	
4.81415	
4.81567	
4.8111	
4.81567	
4.81567	
4.8172	
4.8172	
4.8172	
4.8111	
4.81567	
4.81567	
4.8172	
4.8172	
4.82178	
4.82178	
4.8172	
4.81873	
4.80957	
4.81262	
4.80957	
4.81415	
4.80804	
4.81262	
4.81415	
4.8172	
4.81873	
4.81415	
4.82178	
4.82178	
4.82178	
4.8172	
4.82178	
4.8233	
4.8233	
4.81873	
4.81873	
4.81873	
4.8172	
4.81415	
4.8172	
4.81873	
4.81567	
4.82483	
4.81873	
4.81873	
4.8172	
4.81873	
4.8172	
4.81873	
4.81415	
4.81567	
4.81873	
4.81262	
4.81567	
4.8111	
4.81415	
4.81567	
4.81415	
4.81262	
4.81415	
4.80957	
4.81415	
4.8172	
4.81567	
4.81262	
4.81262	
4.81262	
4.80347	
4.80957	
4.80804	
4.80804	
4.80957	
4.81262	
4.80957	
4.81567	
4.81873	
4.81567	
4.82178	
4.81415	
4.81415	
4.80652	
4.80804	
4.80194	
4.80347	
4.80652	
4.80652	
4.80652	
4.80652	
4.80499	
4.80652	
4.80957	
4.80499	
4.80804	
4.80957	
4.80804	
4.8111	
4.82178	
4.81873	
4.8172	
4.81415	
4.81415	
4.81262	
4.8111	
4.80804	
4.80652	
4.80652	
4.80804	
4.80957	
4.80652	
4.80652	
4.80957	
4.8111	
4.81567	
4.81567	
4.82178	
4.8172	
4.81873	
4.81262	
4.80957	
4.8111	
4.8111	
4.81262	
4.80804	
4.81262	
4.8172	
4.81567	
4.8111	
4.81415	
4.81415	
4.81415	
4.81262	
4.81262	
4.8111	
4.81415	
4.8111	
4.81415	
4.80957	
4.80957	
4.80804	
4.80804	
4.8111	
4.80347	
4.8111	
4.8111	
4.8111	
4.81415	
4.8111	
4.81262	
4.81262	
4.80652	
4.80804	
4.80804	
4.8111	
4.8111	
4.80957	
4.80957	
4.80652	
4.80957	
4.80957	
4.80957	
4.80499	
4.80804	
4.8111	
4.81262	
4.81415	
4.80957	
4.81415	
4.81262	
4.81262	
4.81262	
4.8111	
4.8111	
4.80957	
4.80957	
4.81262	
4.81262	
4.8111	
4.8111	
4.81415	
4.81415	
4.81262	
4.81415	
4.81567	
4.81262	
4.8111	
4.81415	
4.81415	
4.80957	
4.8111	
4.8111	
4.80957	
4.80652	
4.80957	
4.80652	
4.80652	
4.80652	
4.81262	
4.80957	
4.81415	
4.8172	
4.8233	
4.82483	
4.82178	
4.8172	
4.81567	
4.82178	
4.8172	
4.81873	
4.82178	
4.81873	
4.80957	
4.81262	
4.81567	
4.82178	
4.81873	
4.81262	
4.8111	
4.81262	
4.81262	
4.81262	
4.8172	
4.8172	
4.81567	
4.8172	
4.8172	
4.81873	
4.81873	
4.82178	
4.8172	
4.82178	
4.8172	
4.82178	
4.81567	
4.81873	
4.81873	
4.82635	
4.82788	
4.8233	
4.81415	
4.8172	
4.81415	
4.81567	
4.8233	
4.82178	
4.82178	
4.8233	
4.81873	
4.82178	
4.8233	
4.82483	
4.82178	
4.82941	
4.8233	
4.82483	
4.82635	
4.82483	
4.8233	
4.82483	
4.8233	
4.82483	
4.81873	
4.81567	
4.82635	
4.82635	
4.82635	
4.8233	
4.82178	
4.81873	
4.82483	
4.82178	
4.81873	
4.8172	
4.82178	
4.8172	
4.82788	
4.82635	
4.82178	
4.82635	
4.82483	
4.82483	
4.82483	
4.82635	
4.8233	
4.82483	
4.82635	
4.82788	
4.82788	
4.8233	
4.8233	
4.82483	
4.82483	
4.82788	
4.82635	
4.82941	
4.82635	
4.82483	
4.82483	
4.82483	
4.8172	
4.81873	
4.8172	
4.8233	
4.81873	
4.81415	
4.8172	
4.82635	
4.8172	
4.82635	
4.82483	
4.8233	
4.81567	
4.82635	
4.82635	
4.82483	
4.82483	
4.8233	
4.8233	
4.8172	
4.82178	
4.81873	
4.82178	
4.81873	
4.81567	
4.8172	
4.82178	
4.81873	
4.81567	
4.8233	
4.82178	
4.82178	
4.8172	
4.81873	
4.81415	
4.8172	
4.82178	
4.82635	
4.81873	
4.81567	
4.8172	
4.81567	
4.8172	
4.81873	
4.81567	
4.81567	
4.81873	
4.82178	
4.8172	
4.81873	
4.81873	
4.81567	
4.82483	
4.82178	
4.81567	
4.81415	
4.81567	
4.81567	
4.8111	
4.81415	
4.81415	
4.82178	
4.81415	
4.81873	
4.81262	
4.8233	
4.81873	
4.82178	
4.82178	
4.8172	
4.8233	
4.8172	
4.8172	
4.81415	
4.81567	
4.81567	
4.82178	
4.81567	
4.80499	
4.80652	
4.80499	
4.80652	
4.80804	
4.81567	
4.81262	
4.80804	
4.80957	
4.80804	
4.80042	
4.80194	
4.80042	
4.80347	
4.80194	
4.81567	
4.81567	
4.81262	
4.81415	
4.80957	
4.82941	
4.82788	
4.81873	
4.81873	
4.8172	
4.81415	
4.81262	
4.80347	
4.81262	
4.81262	
4.8111	
4.8111	
4.80957	
4.80957	
4.80957	
4.81567	
4.81873	
4.8172	
4.82178	
4.81873	
4.81262	
4.81415	
4.81567	
4.81415	
4.81415	
4.8111	
4.8111	
4.80804	
4.81873	
4.81567	
4.81262	
4.81567	
4.8172	
4.8172	
4.81415	
4.82178	
4.8233	
4.81873	
4.82635	
4.82635	
4.8172	
4.8233	
4.81873	
4.8172	
4.8172	
4.81567	
4.81415	
4.81262	
4.81415	
4.81262	
4.81567	
4.81262	
4.8111	
4.79584	
4.79736	
4.79431	
4.80042	
4.81415	
4.82635	
4.83856	
4.84314	
4.84772	
4.85382	
4.87061	
4.88586	
4.88739	
4.87366	
4.86603	
4.85077	
4.83704	
4.81567	
4.80499	
4.79279	
4.78516	
4.77142	
4.7699	
4.7821	
4.79279	
4.79736	
4.80347	
4.80957	
4.81873	
4.84009	
4.84619	
4.84161	
4.84772	
4.86755	
4.86755	
4.8645	
4.87366	
4.85992	
4.84924	
4.84924	
4.85687	
4.86908	
4.86755	
4.8645	
4.87518	
4.87366	
4.85687	
4.84161	
4.82178	
4.80957	
4.79126	
4.77753	
4.776	
4.76379	
4.75922	
4.75311	
4.77295	
4.78668	
4.79431	
4.80804	
4.83856	
4.85077	
4.91333	
4.94537	
4.95453	
4.94995	
4.92706	
4.91333	
4.88586	
4.8645	
4.84161	
4.82635	
4.79431	
4.776	
4.776	
4.76685	
4.76074	
4.77142	
4.78668	
4.79889	
4.79431	
4.77753	
4.77448	
4.80194	
4.8172	
4.93469	
5.03998	
5.06134	
5.03235	
5.00946	
4.96674	
4.92401	
4.90723	
4.88739	
4.87366	
4.85077	
4.81873	
4.85077	
4.89044	
4.91638	
4.9118	
4.88892	
4.86298	
4.84772	
4.7821	
4.74396	
4.7287	
4.70581	
4.69818	
4.69055	
4.71344	
4.71649	
4.71802	
4.74091	
4.76532	
4.7699	
4.77142	
4.79279	
4.80347	
4.83704	
4.83856	
4.84619	
4.84619	
4.8645	
4.89349	
4.90875	
4.90875	
4.91638	
4.9118	
4.89807	
4.91333	
4.91638	
4.89807	
4.89349	
4.8996	
4.9057	
4.89349	
4.86755	
4.84772	
4.8233	
4.80042	
4.80042	
4.80499	
4.7699	
4.7699	
4.89197	
4.94537	
4.9881	
5.13153	
5.22156	
5.24597	
5.21393	
5.14984	
5.05981	
4.92859	
4.79584	
4.68445	
4.61884	
4.5929	
4.57458	
4.59595	
4.62036	
4.73022	
4.80804	
4.8111	
4.82788	
4.87671	
4.8996	
4.94537	
4.96979	
4.97131	
4.953	
4.89349	
4.82635	
4.76532	
4.73633	
4.71344	
4.69208	
4.6814	
4.70123	
4.70734	
4.72717	
4.77448	
4.78516	
4.75311	
4.76227	
4.776	
4.81873	
4.80804	
4.80499	
4.81567	
4.8172	
4.82178	
4.82483	
4.82941	
4.84772	
4.85382	
4.85077	
4.84772	
4.84619	
4.84467	
4.84009	
4.83398	
4.82635	
4.88281	
4.93011	
4.94537	
4.91943	
4.96826	
5.02777	
5.09949	
5.09644	
5.10406	
5.08118	
5.03235	
4.96979	
4.92249	
4.89502	
4.83704	
4.7821	
4.7348	
4.73633	
4.74548	
4.80347	
4.86908	
4.97437	
5.00946	
4.99878	
4.95911	
4.93164	
4.89502	
4.83093	
4.78058	
4.73175	
4.71039	
4.70428	
4.75159	
4.83551	
4.85687	
4.91638	
5.00183	
5.05219	
5.09796	
5.06744	
5.02014	
4.95148	
4.88892	
4.86603	
4.89044	
4.88281	
4.87213	
4.82635	
4.77753	
4.73785	
4.70581	
4.71039	
4.73938	
4.82941	
4.83398	
4.88586	
4.92859	
4.94232	
4.90112	
4.89044	
4.86298	
4.84772	
4.82483	
4.80042	
4.83856	
4.82941	
4.80652	
4.79736	
4.83398	
4.90417	
4.92401	
4.94232	
4.99115	
5.06592	
5.10864	
5.13153	
5.22614	
5.37415	
5.39856	
5.3421	
5.32684	
5.25818	
5.14526	
4.99725	
4.90723	
4.83246	
4.75006	
4.68445	
4.61884	
4.55933	
4.51965	
4.48914	
4.49829	
4.52576	
4.58374	
4.71039	
4.89807	
4.99115	
5.0293	
5.02167	
5.01251	
4.99725	
4.92554	
4.84161	
4.73938	
4.65851	
4.60968	
4.60358	
4.58984	
4.64325	
4.71649	
4.80042	
4.83093	
4.89044	
4.91791	
5.05676	
5.3299	
5.56641	
5.61981	
5.60913	
5.56488	
5.47791	
5.34668	
5.13458	
4.92096	
4.76532	
4.63562	
4.57916	
4.54102	
4.49829	
4.43115	
4.45557	
4.52881	
4.60663	
4.63562	
4.64935	
4.66003	
4.73938	
4.84467	
5.02625	
5.15137	
5.24292	
5.35126	
5.48553	
5.49164	
5.39551	
5.38483	
5.4718	
5.45349	
5.34668	
5.19562	
5.06287	
4.9408	
4.8111	
4.74091	
4.69666	
4.69513	
4.66766	
4.63562	
4.58374	
4.53949	
4.45251	
4.4342	
4.46472	
4.48914	
4.48761	
4.51508	
4.60663	
4.70428	
4.74854	
4.73175	
4.83093	
4.94537	
4.95453	
4.92249	
4.8996	
4.8584	
4.84619	
4.81567	
4.80804	
4.77905	
4.86603	
5.01862	
5.10406	
5.15747	
5.16205	
5.13458	
5.09338	
4.98505	
4.88739	
4.74854	
4.67987	
4.64325	
4.60358	
4.57001	
4.58832	
4.58984	
4.64325	
4.68292	
4.73938	
4.75159	
4.7348	
4.71191	
4.71039	
4.73938	
4.74854	
4.74396	
4.75616	
4.75616	
4.75464	
4.75464	
4.76227	
4.76074	
4.76837	
4.77448	
4.77295	
4.76227	
4.77905	
4.79889	
4.84467	
4.88129	
4.89807	
4.90723	
4.89502	
4.86908	
4.83551	
4.8111	
4.81262	
4.83551	
4.80194	
4.79126	
4.79431	
4.80957	
4.82178	
4.79736	
4.76227	
4.76837	
5.05066	
5.2124	
5.27191	
5.26123	
5.19257	
5.08423	
4.93317	
4.79126	
4.81873	
4.82178	
4.7821	
4.76685	
4.78058	
4.73328	
4.71649	
4.74701	
4.8233	
4.85535	
4.83246	
4.79584	
4.78668	
4.77142	
4.74854	
4.7821	
4.82178	
4.80347	
4.7699	
4.74701	
4.76532	
4.75006	
4.71649	
4.71039	
4.70428	
4.69971	
4.71802	
4.75006	
4.75616	
4.76685	
4.75922	
4.75006	
4.75006	
4.75616	
4.76379	
4.82635	
4.90723	
4.93927	
4.95453	
4.94995	
4.93164	
4.91638	
4.97437	
5.05829	
5.05371	
5.02777	
4.96063	
4.87213	
4.82483	
4.75311	
4.67377	
4.63257	
4.59442	
4.57306	
4.61121	
4.67377	
4.7226	
4.76685	
4.79279	
4.87061	
4.89655	
4.86298	
4.84161	
4.79584	
4.76074	
4.72717	
4.72107	
4.71954	
4.74396	
4.76379	
4.78516	
4.81567	
4.85077	
4.88281	
4.94537	
4.96674	
4.953	
4.95453	
4.94232	
4.91638	
4.87823	
4.82941	
4.76379	
4.72717	
4.70123	
4.68292	
4.6814	
4.67987	
4.70276	
4.68903	
4.69513	
4.7348	
4.76837	
4.76379	
4.75922	
4.74701	
4.75464	
4.75616	
4.75616	
4.77753	
4.80957	
4.82178	
4.81873	
4.81415	
4.84161	
4.9057	
4.92401	
4.90112	
4.87366	
4.87518	
4.87823	
4.86298	
4.82788	
4.7821	
4.73785	
4.74548	
4.75311	
4.73175	
4.89807	
5.14374	
5.23987	
5.29327	
5.28259	
5.1712	
5.01556	
4.91333	
4.80957	
4.71497	
4.65088	
4.61426	
4.62036	
4.58984	
4.54559	
4.67224	
4.84009	
4.9881	
5.00031	
5.01556	
5.00641	
5.02777	
5.00946	
4.98962	
4.94995	
4.92096	
4.86908	
4.80042	
4.74091	
4.94995	
5.27802	
5.45349	
5.513	
5.59082	
5.53436	
5.39856	
5.19714	
5.03387	
4.84619	
4.70886	
4.60815	
4.53949	
4.46625	
4.42963	
4.53033	
4.59747	
4.65698	
4.6875	
4.64935	
4.67529	
4.65393	
4.76379	
4.82483	
4.83856	
4.82941	
4.80957	
4.76074	
4.65546	
4.59595	
4.67834	
4.92859	
5.14832	
5.25055	
5.26581	
5.24139	
5.24902	
5.20782	
5.17426	
5.14069	
5.1178	
5.04608	
4.97742	
5.09796	
5.21698	
5.28717	
5.34821	
5.33905	
5.24292	
5.11932	
4.87213	
4.66766	
4.54102	
4.46625	
4.48608	
4.48608	
4.53339	
4.50745	
4.78058	
5.21393	
5.40771	
5.50842	
5.56641	
5.55115	
5.35278	
5.05524	
4.84619	
4.74396	
4.76532	
4.85535	
4.84009	
4.77753	
4.70734	
4.74701	
4.91791	
4.93927	
5.02777	
5.18799	
5.12848	
5.18188	
5.24597	
5.27191	
5.39703	
5.43518	
5.38025	
5.28412	
5.16357	
5.22919	
5.23834	
5.17426	
5.14679	
5.00183	
4.84009	
4.65546	
4.59137	
4.78973	
4.78363	
4.74854	
4.71039	
4.71649	
4.59747	
4.43268	
4.42352	
4.52423	
4.57916	
4.67377	
4.74396	
4.8172	
4.82483	
4.71191	
4.74548	
4.80804	
4.80194	
4.77905	
5.04456	
5.20782	
5.25818	
5.27954	
5.24292	
5.16663	
5.06744	
4.87213	
4.72107	
4.67224	
4.86298	
4.90723	
4.93317	
4.91638	
4.84924	
4.83856	
4.82178	
4.76532	
4.74548	
4.75311	
4.75159	
4.74854	
4.75159	
4.76074	
4.80499	
4.93927	
5.10712	
5.14679	
5.11475	
5.07202	
5.04456	
5.00946	
5.01709	
4.95605	
4.82788	
4.7821	
4.86145	
5.03998	
5.159	
5.24597	
5.17273	
5.07965	
5.07202	
4.96826	
4.91943	
5.11932	
5.39246	
5.47943	
5.46722	
5.31921	
5.15747	
5.04608	
4.96368	
4.84467	
4.7348	
4.68597	
4.78973	
4.94385	
5.2063	
5.23376	
5.1651	
5.12238	
5.04913	
4.98047	
4.89044	
4.83246	
4.84772	
4.84467	
4.87823	
4.89349	
4.85077	
4.92554	
5.10101	
5.09491	
4.98352	
4.85382	
4.72412	
4.59747	
4.50592	
4.44641	
4.35181	
4.3396	
4.31671	
4.28772	
4.36401	
4.53033	
4.6402	
4.6814	
4.85382	
4.95758	
5.05524	
5.2063	
5.33447	
5.33142	
5.25208	
5.13306	
4.97131	
4.82483	
4.8111	
4.88739	
4.86298	
4.85382	
4.88892	
4.97284	
5.03387	
5.05066	
5.06592	
5.02777	
4.88739	
4.7287	
4.68597	
4.78668	
4.90875	
4.96826	
5.18341	
5.40161	
5.4245	
5.39856	
5.36194	
5.22766	
5.11627	
4.95148	
4.73785	
4.67224	
4.67072	
4.61731	
4.5929	
4.64783	
4.66003	
4.72412	
4.80042	
4.90723	
4.9408	
4.96521	
4.99573	
4.96063	
4.89044	
4.76379	
4.61884	
4.55627	
4.55627	
4.63409	
4.76379	
4.8233	
4.79431	
4.78668	
4.76532	
4.78668	
4.75922	
4.72107	
4.59747	
4.6524	
4.75464	
4.78516	
5.00641	
5.11627	
5.03845	
4.9881	
4.98657	
4.9057	
4.84009	
4.6875	
4.52118	
4.36096	
4.28619	
4.35486	
4.46014	
4.36401	
4.48608	
4.71039	
4.79431	
4.83398	
4.80652	
4.79431	
4.8172	
4.80042	
4.85687	
4.8996	
4.93164	
4.91943	
4.83704	
4.73785	
4.69208	
4.69055	
4.83551	
5.02014	
5.11932	
5.26123	
5.34058	
5.35278	
5.39398	
5.42755	
5.39551	
5.35278	
5.22766	
4.93622	
4.82483	
4.86298	
4.82788	
4.8111	
4.77753	
4.7348	
4.776	
4.73785	
4.71191	
4.69818	
4.60968	
4.56848	
4.54407	
4.5578	
4.63409	
4.66614	
4.68445	
4.81415	
4.91333	
5.0705	
5.10864	
5.10406	
5.07813	
4.97284	
4.82178	
4.74396	
4.85535	
4.87671	
4.83704	
4.72107	
4.59747	
4.55017	
4.48914	
4.43878	
4.48608	
4.52881	
4.45709	
4.50745	
4.49524	
4.61426	
4.90112	
5.03082	
5.20782	
5.25055	
5.2475	
5.25818	
5.28259	
5.24292	
5.13611	
5.10406	
5.08423	
5.06134	
5.11475	
5.06744	
4.94995	
4.85382	
4.76074	
4.65698	
4.60663	
4.58527	
4.59595	
4.64783	
4.64783	
4.65546	
4.75616	
4.84161	
4.85077	
4.80042	
4.81262	
4.89807	
4.96521	
5.00946	
5.22308	
5.31464	
5.28564	
5.21698	
5.11322	
4.94843	
4.81415	
4.75616	
4.65851	
4.66461	
4.64172	
4.51508	
4.58069	
4.65393	
4.66461	
4.76837	
4.94232	
5.00488	
5.05981	
5.04456	
5.06439	
5.11627	
5.14832	
5.18036	
5.17578	
5.13458	
5.02625	
4.90265	
4.78516	
4.85382	
4.85687	
4.90112	
4.74854	
4.5105	
4.35333	
4.44794	
4.62799	
4.70276	
4.76837	
4.76074	
4.77142	
4.80347	
4.76532	
4.7821	
4.8233	
4.87061	
4.78668	
4.86603	
4.98352	
5.07507	
5.18494	
5.16357	
5.18341	
5.26123	
5.2475	
5.1651	
4.99115	
4.7699	
4.55933	
4.45557	
4.53339	
4.67529	
4.79736	
4.7821	
4.79126	
4.93469	
4.9881	
5.00336	
4.92096	
4.78973	
4.66614	
4.52271	
4.67987	
4.91791	
5.02625	
5.06439	
5.31616	
5.40161	
5.44586	
5.4245	
5.36652	
5.23071	
4.95605	
4.67224	
4.3869	
4.31061	
4.21906	
4.22668	
4.26331	
4.41895	
4.55017	
4.62036	
4.69818	
4.72412	
4.86755	
4.86298	
4.9881	
5.22461	
5.38025	
5.40009	
5.48248	
5.47791	
5.37262	
5.16663	
5.07507	
4.97589	
4.7348	
4.51965	
4.68292	
4.8233	
4.93164	
4.7287	
4.64935	
4.84619	
4.76837	
4.67377	
4.69513	
4.75464	
4.80499	
4.83246	
4.96216	
5.01251	
4.85992	
4.80194	
4.94385	
5.04913	
5.04608	
4.96368	
4.91638	
4.87823	
4.78668	
4.6402	
4.67834	
4.70428	
4.87213	
4.93774	
5.06744	
5.10406	
5.04456	
4.86145	
4.63257	
4.54865	
4.61578	
4.65393	
4.73328	
4.9118	
4.88129	
4.64478	
4.56238	
4.76837	
4.87061	
5.02625	
5.25665	
5.45654	
5.46417	
5.34821	
5.23071	
4.93927	
4.70734	
4.62189	
4.65851	
4.49219	
4.72717	
4.84772	
4.82635	
4.78058	
4.71191	
4.53339	
4.83246	
5.10254	
5.33905	
5.47943	
5.54352	
5.58319	
5.47943	
5.57251	
5.57556	
5.41534	
5.12085	
4.59595	
4.32587	
4.42657	
4.50134	
4.66919	
4.79584	
5.03387	
5.1239	
5.1239	
5.18646	
5.01862	
4.68903	
4.37927	
4.41742	
4.35333	
3.85132	
3.79333	
4.19312	
4.48914	
4.77905	
5.08575	
5.42145	
5.69	
5.77393	
5.70374	
5.47638	
5.36041	
5.11475	
4.70581	
4.48303	
4.46777	
4.79584	
4.95758	
5.00641	
5.10406	
5.12543	
4.87823	
4.8233	
4.81873	
4.78973	
4.82941	
4.82483	
4.98962	
4.99573	
4.91028	
5.04608	
5.11322	
5.0705	
5.00793	
4.98199	
4.89349	
4.45404	
4.21295	
4.26788	
4.39453	
4.22821	
4.22516	
4.48608	
4.6524	
4.79736	
4.90417	
5.01862	
5.08575	
5.40161	
5.67169	
5.72357	
5.46875	
5.36804	
5.17883	
5.03998	
4.99573	
4.88739	
4.81415	
4.79279	
4.87976	
5.06287	
5.13916	
4.93622	
4.78668	
4.59137	
4.27551	
4.13971	
3.88031	
3.63312	
3.89557	
4.23584	
4.76685	
5.1239	
5.35431	
5.64423	
5.85175	
5.9494	
5.70984	
5.36041	
5.28259	
5.1178	
5.05676	
5.09491	
4.93927	
4.70734	
4.65393	
4.71802	
4.78363	
4.52118	
4.31671	
3.92456	
3.77197	
4.03137	
4.15344	
4.62189	
5.08728	
5.44434	
5.53894	
5.33905	
5.22919	
5.31311	
5.25818	
5.2948	
5.2002	
4.98505	
5.18799	
5.21088	
5.14221	
4.76685	
4.49219	
4.55627	
4.57916	
4.85382	
4.80347	
4.74243	
4.87366	
5.15137	
5.27954	
5.25665	
5.3009	
5.03082	
4.55017	
4.42047	
4.52423	
4.57458	
4.60968	
4.7348	
4.64172	
4.422	
4.45251	
4.45862	
4.44183	
4.71191	
4.97589	
5.04913	
5.23529	
5.07813	
4.76074	
4.36401	
4.4281	
4.5929	
4.86908	
5.18188	
5.3894	
5.5542	
5.2124	
5.07813	
5.16815	
5.14221	
5.01556	
4.90265	
4.83704	
4.78973	
4.57611	
4.48608	
4.34723	
4.21448	
4.17023	
4.36249	
4.83704	
5.08728	
5.08728	
4.8172	
4.42963	
4.45099	
4.63409	
4.79889	
4.96063	
5.05676	
5.15289	
4.85077	
4.40216	
4.20227	
4.04358	
4.32739	
4.85992	
5.23529	
5.40314	
5.60455	
5.58777	
5.62439	
5.69	
5.65186	
5.39398	
5.04456	
4.56848	
3.85437	
3.67279	
3.79791	
4.00543	
4.422	
4.84924	
5.27039	
5.63202	
5.53589	
5.37109	
5.2002	
5.19104	
5.14832	
5.11932	
5.05676	
4.97131	
4.47845	
4.20837	
4.24805	
4.37164	
4.45251	
4.59747	
4.82635	
4.97437	
5.27802	
5.0293	
4.66919	
4.31061	
4.12598	
4.245	
4.5639	
4.93469	
5.33295	
5.46417	
5.4657	
5.33905	
4.98505	
4.77448	
4.6814	
4.84161	
4.8172	
4.6875	
4.37775	
3.93066	
3.61633	
3.51257	
3.58582	
3.7323	
3.84674	
4.26025	
4.9942	
5.48401	
5.81512	
5.67017	
5.4306	
5.31921	
5.10864	
4.88281	
4.58221	
4.47388	
4.52728	
4.6463	
4.92096	
4.99725	
4.70276	
4.79431	
4.97284	
5.04761	
5.30853	
5.29022	
5.19562	
5.04456	
4.78058	
4.67987	
4.86298	
5.00793	
5.12085	
5.22919	
5.2948	
5.42145	
5.26886	
4.52728	
4.19922	
3.94897	
3.87268	
3.94745	
4.1626	
4.46777	
4.73175	
4.9057	
4.96826	
5.12085	
5.42755	
5.37415	
5.19714	
5.0766	
4.97131	
4.45862	
3.93524	
3.4668	
3.22266	
3.41949	
3.83453	
4.31824	
5.01709	
5.52368	
5.82886	
6.07605	
5.74799	
5.44586	
5.2948	
5.09796	
5.05371	
5.04913	
5.08575	
5.17578	
5.06287	
4.93927	
4.81567	
4.7821	
4.71191	
4.54407	
4.32587	
4.29993	
4.44946	
4.63409	
4.64783	
4.71802	
4.50897	
4.52118	
4.53644	
4.56238	
4.58069	
4.40216	
4.57611	
4.81567	
4.97742	
4.74854	
4.57306	
4.57306	
4.58069	
4.69971	
4.67377	
4.67072	
4.54559	
4.4632	
4.41132	
4.41895	
4.60663	
4.88586	
4.87976	
4.8645	
4.96216	
5.11475	
4.97589	
4.93622	
4.97742	
4.86603	
4.76379	
4.37469	
4.06647	
3.84827	
3.99323	
4.08173	
4.15649	
4.53796	
5.00183	
5.06439	
5.03693	
4.79736	
4.65088	
4.73938	
4.76379	
4.71649	
4.75311	
4.8645	
4.67987	
4.4281	
4.06342	
4.05426	
4.20685	
4.56543	
4.87061	
5.12085	
5.04761	
4.66919	
4.44794	
4.38843	
4.44183	
4.5578	
4.65851	
4.82635	
4.85687	
4.83093	
4.98199	
4.90112	
4.87823	
4.86145	
4.80347	
4.73938	
4.46777	
4.43726	
4.3045	
3.83911	
3.70178	
3.66821	
3.83301	
4.04358	
4.00391	
4.38995	
4.79431	
4.88129	
4.81262	
4.9408	
4.97742	
5.13153	
5.13	
5.09186	
4.73328	
4.55933	
4.52728	
4.55627	
4.60968	
4.71802	
4.80194	
4.75464	
4.70734	
4.64935	
4.16565	
4.06494	
4.06799	
4.13818	
3.87268	
3.6972	
3.84521	
4.02527	
4.27094	
4.62646	
5.10254	
5.41534	
5.19104	
4.84467	
4.50134	
4.22668	
4.12903	
4.28619	
4.45557	
4.69971	
4.92401	
5.10254	
5.15442	
5.08423	
4.77142	
4.63104	
4.63104	
4.57916	
4.30908	
4.039	
3.97339	
4.02069	
4.15802	
4.26178	
4.37164	
4.6524	
4.80194	
4.92554	
4.83704	
4.58832	
4.63715	
4.32739	
3.8559	
3.84979	
4.01459	
4.29382	
4.45251	
4.5166	
4.51965	
4.22516	
4.08325	
4.28619	
4.57306	
4.79126	
5.01862	
5.15747	
5.23834	
4.75159	
4.61578	
4.54865	
4.40063	
4.31671	
4.245	
4.32281	
4.49524	
4.7226	
4.73785	
4.76837	
4.78973	
4.78516	
4.53949	
4.22821	
4.06189	
4.02069	
4.04205	
4.19922	
4.35791	
4.53339	
4.63867	
4.71649	
4.77295	
4.67834	
4.61731	
4.53949	
4.58221	
4.65088	
4.63409	
4.40216	
4.37469	
4.24652	
4.245	
4.27246	
4.3869	
4.50745	
4.44489	
4.45557	
4.52118	
4.61121	
4.59747	
4.58527	
4.44794	
4.26025	
3.95355	
3.78723	
3.86047	
4.17786	
4.49219	
4.67529	
4.80957	
4.89197	
4.6875	
4.80042	
4.85535	
4.69818	
4.61426	
4.47693	
4.35333	
4.27551	
4.28772	
4.34265	
4.38538	
4.39911	
4.47235	
4.50745	
4.4693	
4.15344	
4.10614	
4.14124	
4.216	
4.2923	
4.29688	
4.41132	
4.01459	
4.12598	
4.23737	
4.13055	
4.3335	
4.47845	
4.64172	
4.41742	
4.35333	
4.422	
4.38232	
4.2511	
4.11987	
4.19922	
4.08173	
4.00543	
4.11377	
4.26331	
4.51813	
4.75464	
4.78668	
4.72107	
4.40674	
4.37775	
4.37164	
4.38385	
4.31976	
4.15344	
4.25568	
4.37927	
4.5166	
4.59747	
4.5166	
4.35791	
4.23279	
4.06647	
3.7384	
3.7674	
4.00848	
4.17328	
4.3335	
4.31824	
4.39606	
4.49524	
4.53186	
4.39758	
4.13361	
3.91541	
3.76282	
3.86505	
3.86505	
4.01611	
4.23431	
4.31671	
4.28314	
4.27246	
4.31061	
4.3808	
4.30298	
4.23737	
4.22211	
4.19464	
4.13055	
4.13666	
4.16412	
4.11682	
4.0802	
4.03595	
4.0863	
4.14734	
4.21906	
4.18701	
4.19159	
4.26025	
4.27856	
4.22668	
4.09241	
3.81317	
3.73993	
3.90167	
3.8559	
3.67584	
3.61938	
3.79944	
3.96576	
4.23126	
4.42657	
4.48914	
4.43878	
4.45557	
4.21143	
4.05731	
3.9093	
3.94592	
4.04968	
4.08173	
4.03442	
3.79639	
3.84216	
3.95813	
4.00391	
4.0863	
3.78418	
3.88947	
3.96118	
3.93066	
3.9917	
4.05273	
4.19769	
4.16565	
4.03137	
3.9917	
4.09851	
4.27399	
3.91388	
3.29895	
2.99835	
3.00903	
3.20892	
3.51868	
3.84216	
4.3396	
4.58527	
4.47388	
4.37927	
4.19159	
4.14124	
4.10461	
4.039	
3.99475	
3.84827	
3.75061	
3.7674	
3.76282	
3.82233	
3.91083	
3.9978	
4.06799	
4.05273	
4.07257	
3.92609	
3.862	
3.82843	
3.77808	
3.77045	
3.69873	
3.70941	
3.75671	
3.77197	
3.79944	
3.72467	
3.75671	
3.80249	
3.87268	
3.81927	
3.8269	
3.78723	
3.76282	
3.49579	
3.14484	
3.10364	
3.36304	
3.67737	
3.78571	
3.89862	
4.06494	
4.35333	
4.36249	
4.12598	
4.0451	
4.06647	
3.90778	
3.85742	
3.75671	
3.75824	
3.68958	
3.65753	
3.66669	
3.73535	
3.78418	
3.84521	
3.83606	
3.80859	
3.88184	
3.85895	
3.8208	
3.77655	
3.75366	
3.71399	
3.685	
3.66974	
3.54004	
3.40576	
3.37067	
3.44849	
3.55988	
3.66211	
3.75214	
3.81927	
3.9032	
3.8559	
3.68042	
3.56445	
3.47137	
3.39508	
3.42255	
3.55682	
3.72314	
3.82996	
3.56598	
3.3432	
3.26385	
3.27911	
3.50647	
3.77808	
4.01917	
4.15802	
4.10156	
3.82843	
3.8559	
3.73535	
3.64227	
3.62701	
3.66364	
3.70178	
3.6438	
3.6087	
3.6026	
3.5614	
3.55072	
3.56293	
3.54309	
3.43018	
3.45917	
3.54462	
3.61786	
3.75824	
3.63007	
3.61786	
3.61023	
3.64838	
3.6087	
3.63312	
3.74298	
3.74451	
3.71857	
3.69415	
3.66974	
3.64227	
3.64227	
3.57971	
3.53851	
3.45917	
3.41949	
3.23792	
3.0304	
3.04565	
3.25775	
3.48511	
3.58887	
3.65295	
3.88489	
3.89404	
3.79944	
3.53699	
3.51257	
3.51563	
3.54614	
3.59955	
3.59192	
3.61176	
3.6377	
3.62854	
3.61633	
3.54614	
3.55988	
3.62396	
3.78418	
3.8208	
3.75824	
3.77655	
3.7262	
3.68652	
3.68652	
3.58887	
3.39508	
3.19977	
3.30353	
3.34167	
3.31116	
3.31421	
3.49274	
3.63007	
3.50189	
3.43323	
3.3844	
3.4256	
3.5614	
3.75061	
3.94287	
4.0741	
4.06494	
3.87726	
3.68805	
3.5614	
3.47748	
3.45306	
3.48969	
3.56903	
3.62091	
3.65753	
3.6911	
3.67279	
3.59955	
3.5675	
3.56293	
3.57056	
3.59039	
3.60718	
3.65906	
3.61786	
3.61176	
3.52478	
3.55835	
3.66974	
3.79639	
3.87421	
3.83148	
3.75824	
3.57666	
3.32642	
3.20435	
3.27148	
3.30658	
3.508	
3.68042	
3.70941	
3.82996	
3.91541	
3.81927	
3.7262	
3.70026	
3.59802	
3.60107	
3.70636	
3.61328	
3.63464	
3.6438	
3.70636	
3.6026	
3.59344	
3.57666	
3.61328	
3.63312	
3.68042	
3.77655	
3.88489	
3.85437	
3.83301	
3.85895	
3.8208	
3.78265	
3.73535	
3.68805	
3.66364	
3.68195	
3.72925	
3.7262	
3.73535	
3.70941	
3.60718	
3.54309	
3.5553	
3.59497	
3.69568	
3.77045	
3.78265	
3.75824	
3.74603	
3.70331	
3.66364	
3.65601	
3.68958	
3.7262	
3.75061	
3.7323	
3.72772	
3.71246	
3.60718	
3.62701	
3.61176	
3.48511	
3.36914	
3.42255	
3.46527	
3.50189	
3.52783	
3.685	
3.75671	
3.75977	
3.68805	
3.72009	
3.74603	
3.74298	
3.71246	
3.84979	
3.88184	
3.71704	
3.48511	
3.43323	
3.45001	
3.57971	
3.68805	
3.79791	
3.8681	
3.87878	
3.96118	
3.89862	
3.82385	
3.79181	
3.76129	
3.73688	
3.73077	
3.72162	
3.7262	
3.72772	
3.66516	
3.61023	
3.57819	
3.61328	
3.6911	
3.78113	
3.87268	
3.94897	
3.88489	
3.83301	
3.78876	
3.73535	
3.66516	
3.55835	
3.57056	
3.61328	
3.61176	
3.60107	
3.61328	
3.62091	
3.63007	
3.64227	
3.66669	
3.67737	
3.68195	
3.66974	
3.64838	
3.44391	
3.20892	
3.20129	
3.29285	
3.47137	
3.59344	
3.6911	
3.862	
3.9444	
3.75214	
3.74908	
3.70941	
3.68347	
3.74756	
3.79486	
3.76892	
3.80707	
3.79944	
3.77045	
3.62701	
3.62549	
3.63922	
3.7262	
3.68958	
3.67126	
3.66821	
3.65906	
3.65448	
3.56293	
3.4317	
3.38135	
3.37067	
3.2196	
3.16467	
3.30505	
3.53699	
3.79181	
3.91693	
3.86505	
3.82233	
3.75824	
3.63312	
3.63312	
3.66211	
3.75214	
3.89252	
3.94135	
3.93066	
3.91541	
3.85437	
3.80249	
3.72467	
3.6087	
3.56598	
3.55988	
3.58887	
3.61786	
3.55988	
3.46985	
3.37372	
3.3844	
3.4256	
3.51257	
3.57513	
3.67584	
3.96118	
4.15192	
4.22668	
4.13055	
3.94745	
3.75214	
3.56445	
3.41492	
3.37677	
3.40881	
3.4729	
3.51257	
3.52936	
3.51715	
3.53851	
3.58429	
3.66364	
3.71704	
3.74298	
3.7384	
3.74298	
3.67584	
3.59344	
3.59192	
3.54309	
3.58429	
3.60107	
3.6087	
3.61633	
3.60718	
3.59802	
3.61786	
3.6377	
3.6087	
3.58734	
3.54156	
3.53851	
3.49731	
3.48053	
3.50189	
3.53546	
3.57208	
3.54156	
3.46375	
3.46832	
3.508	
3.5553	
3.6438	
3.66058	
3.67737	
3.60718	
3.57208	
3.50952	
3.55682	
3.62854	
3.69263	
3.75519	
3.77197	
3.7262	
3.6026	
3.48969	
3.46985	
3.47443	
3.52783	
3.58429	
3.61786	
3.67279	
3.70178	
3.75977	
3.67737	
3.66516	
3.67126	
3.62549	
3.60718	
3.5965	
3.59344	
3.5675	
3.54004	
3.53088	
3.48511	
3.44543	
3.46985	
3.52936	
3.61938	
3.80249	
3.7796	
3.6438	
3.62854	
3.6499	
3.66058	
3.63007	
3.62244	
3.60413	
3.5965	
3.60718	
3.57361	
3.51105	
3.48206	
3.47137	
3.50189	
3.5141	
3.59955	
3.60413	
3.63617	
3.68805	
3.66974	
3.6087	
3.53394	
3.50037	
3.46375	
3.47137	
3.46985	
3.46985	
3.50952	
3.5965	
3.62091	
3.62549	
3.60718	
3.6087	
3.59192	
3.55682	
3.58887	
3.59039	
3.57666	
3.59802	
3.59039	
3.57513	
3.55835	
3.56293	
3.56293	
3.5614	
3.55377	
3.54309	
3.53546	
3.52783	
3.508	
3.44086	
3.41949	
3.42865	
3.43628	
3.4668	
3.50189	
3.53851	
3.62244	
3.61023	
3.6087	
3.60107	
3.53699	
3.53699	
3.51105	
3.45459	
3.4256	
3.41034	
3.38593	
3.37372	
3.41644	
3.47595	
3.51257	
3.44238	
3.33252	
3.27148	
3.35693	
3.55988	
3.66364	
3.78418	
3.82843	
3.84064	
3.56903	
3.44849	
3.479	
3.50189	
3.59039	
3.72314	
3.72772	
3.68652	
3.59039	
3.55988	
3.54462	
3.508	
3.51257	
3.63464	
3.69873	
3.64227	
3.57208	
3.54462	
3.54767	
3.56293	
3.55072	
3.45459	
3.4256	
3.39203	
3.35388	
3.32642	
3.39203	
3.49579	
3.57208	
3.61633	
3.57666	
3.54004	
3.53851	
3.58582	
3.65753	
3.70331	
3.71857	
3.70331	
3.508	
3.36761	
3.4668	
3.59344	
3.60718	
3.5965	
3.50189	
3.37219	
3.24402	
3.27911	
3.33099	
3.3493	
3.29895	
3.29285	
3.35083	
3.37219	
3.44391	
3.48511	
3.5675	
3.59497	
3.57361	
3.56445	
3.56293	
3.50952	
3.44849	
3.23029	
3.05023	
2.93579	
3.01056	
3.14484	
3.26385	
3.45459	
3.68805	
3.85132	
3.85284	
3.81317	
3.75671	
3.66974	
3.61176	
3.6499	
3.64532	
3.66211	
3.63617	
3.66516	
3.65448	
3.58887	
3.52783	
3.43628	
3.33099	
3.302	
3.36456	
3.45306	
3.52783	
3.60107	
3.6911	
3.6438	
3.59192	
3.51257	
3.49426	
3.48206	
3.45917	
3.31421	
3.22418	
3.19061	
3.15399	
3.18909	
3.34778	
3.49274	
3.60107	
3.58429	
3.54004	
3.49426	
3.40424	
3.40881	
3.41797	
3.40729	
3.48969	
3.50342	
3.44849	
3.36609	
3.30048	
3.32336	
3.31726	
3.33099	
3.32336	
3.46527	
3.58887	
3.53546	
3.41949	
3.50189	
3.6026	
3.60107	
3.54614	
3.47748	
3.43323	
3.38745	
3.30048	
3.25775	
3.24554	
3.30811	
3.40424	
3.48663	
3.59344	
3.65601	
3.65448	
3.62701	
3.56293	
3.42255	
3.30353	
3.24097	
3.2547	
3.30048	
3.38745	
3.5141	
3.61176	
3.70026	
3.66211	
3.60718	
3.45917	
3.40271	
3.36914	
3.28674	
3.31879	
3.36761	
3.38287	
3.4256	
3.36761	
3.16315	
2.98615	
2.92206	
3.03345	
3.1723	
3.35083	
3.48511	
3.68195	
3.74756	
3.84827	
3.70636	
3.59039	
3.57056	
3.56903	
3.63464	
3.66364	
3.61633	
3.50189	
3.50952	
3.50189	
3.44696	
3.42712	
3.41797	
3.48511	
3.51563	
3.54004	
3.54767	
3.59192	
3.50342	
3.43933	
3.38135	
3.35999	
3.36304	
3.37067	
3.37982	
3.39813	
3.40881	
3.44543	
3.47595	
3.48511	
3.53851	
3.51105	
3.46527	
3.45306	
3.44543	
3.42102	
3.40729	
3.35388	
3.36456	
3.40424	
3.3844	
3.29895	
3.18451	
3.19061	
3.24249	
3.32184	
3.38287	
3.40118	
3.41797	
3.42255	
3.35999	
3.32642	
3.36304	
3.41949	
3.55988	
3.63007	
3.52783	
3.55377	
3.52631	
3.49579	
3.48969	
3.50037	
3.51105	
3.53699	
3.54004	
3.57208	
3.54767	
3.49884	
3.46985	
3.50494	
3.57971	
3.52173	
3.52936	
3.56445	
3.5965	
3.59955	
3.54614	
3.43628	
3.38287	
3.40576	
3.47137	
3.54919	
3.54309	
3.47595	
3.49121	
3.46832	
3.44391	
3.44543	
3.45306	
3.45459	
3.46375	
3.47443	
3.45154	
3.42712	
3.38287	
3.33099	
3.33862	
3.43628	
3.44238	
3.52783	
3.61023	
3.61023	
3.50494	
3.31116	
3.29285	
3.28979	
3.32794	
3.38287	
3.43628	
3.5965	
3.71704	
3.76434	
3.72009	
3.61176	
3.57971	
3.56293	
3.55377	
3.54462	
3.54767	
3.54004	
3.52325	
3.49426	
3.41644	
3.25623	
3.18451	
3.08075	
3.07007	
3.19824	
3.34167	
3.49731	
3.61176	
3.685	
3.71857	
3.75366	
3.77502	
3.7262	
3.63922	
3.62854	
3.6087	
3.58429	
3.57819	
3.57208	
3.56445	
3.54919	
3.52631	
3.51105	
3.50494	
3.50494	
3.50494	
3.51257	
3.52631	
3.5675	
3.5675	
3.57361	
3.53851	
3.54004	
3.56293	
3.52936	
3.50037	
3.54004	
3.54767	
3.52173	
3.49579	
3.48511	
3.50647	
3.48358	
3.46222	
3.48358	
3.52173	
3.5675	
3.58582	
3.54767	
3.55835	
3.54767	
3.56598	
3.56903	
3.57971	
3.58124	
3.59039	
3.62549	
3.63159	
3.61023	
3.57056	
3.5141	
3.38745	
3.25928	
3.27911	
3.31268	
3.38898	
3.43781	
3.53394	
3.58887	
3.68347	
3.74603	
3.66821	
3.66669	
3.68042	
3.62549	
3.60718	
3.61938	
3.5553	
3.54462	
3.51563	
3.52173	
3.49731	
3.41644	
3.38593	
3.39661	
3.4256	
3.49884	
3.47443	
3.48663	
3.59039	
3.63922	
3.46222	
3.40118	
3.3783	
3.38745	
3.45459	
3.58734	
3.75214	
3.89252	
3.91388	
3.79028	
3.68042	
3.67126	
3.65906	
3.59497	
3.59192	
3.57208	
3.5614	
3.53088	
3.52631	
3.54156	
3.59955	
3.61176	
3.56903	
3.5675	
3.51868	
3.40271	
3.35236	
3.30811	
3.33099	
3.39508	
3.46222	
3.55988	
3.69873	
3.86658	
3.91388	
3.85742	
3.81775	
3.74756	
3.7262	
3.69568	
3.68652	
3.70178	
3.6026	
3.54309	
3.49579	
3.50189	
3.54309	
3.57513	
3.62396	
3.64532	
3.70789	
3.77655	
3.76129	
3.65143	
3.44391	
3.30505	
3.24707	
3.28827	
3.39661	
3.508	
3.55377	
3.67432	
3.8208	
3.87726	
3.82843	
3.80249	
3.77197	
3.6972	
3.67126	
3.64838	
3.6087	
3.56445	
3.5614	
3.56445	
3.58429	
3.60565	
3.59344	
3.5614	
3.53088	
3.55682	
3.60413	
3.59344	
3.59497	
3.66364	
3.61786	
3.73993	
3.685	
3.66516	
3.7384	
3.79028	
3.80249	
3.77045	
3.70789	
3.72314	
3.77197	
3.7384	
3.67432	
3.66364	
3.63159	
3.61786	
3.57666	
3.54767	
3.54614	
3.50037	
3.39813	
3.19519	
3.00598	
3.07922	
3.21198	
3.35999	
3.41492	
3.53546	
3.74756	
3.92609	
4.16718	
4.26331	
4.05273	
3.89099	
3.85742	
3.8681	
3.84064	
3.76892	
3.75061	
3.71704	
3.685	
3.68958	
3.6972	
3.65448	
3.66974	
3.69568	
3.73993	
3.73077	
3.72314	
3.68347	
3.63464	
3.64532	
3.64532	
3.66974	
3.68195	
3.68805	
3.63617	
3.65143	
3.63922	
3.59039	
3.58124	
3.54156	
3.57513	
3.61176	
3.68347	
3.76587	
3.82233	
3.75824	
3.77197	
3.78723	
3.84369	
3.78571	
3.74603	
3.73993	
3.74756	
3.74451	
3.73993	
3.74603	
3.73383	
3.61023	
3.32794	
3.11584	
2.88849	
2.85187	
2.94342	
3.18146	
3.39813	
3.57361	
3.7674	
3.94897	
4.14124	
4.14124	
4.23889	
4.08478	
3.96729	
3.89557	
3.84521	
3.84979	
3.83301	
3.77502	
3.7674	
3.76434	
3.74756	
3.71399	
3.69263	
3.65143	
3.54462	
3.24249	
3.10059	
3.10669	
3.22113	
3.41187	
3.61023	
3.80859	
3.94897	
3.93524	
3.9917	
4.06036	
4.04816	
3.93677	
3.78265	
3.71246	
3.65906	
3.66974	
3.63159	
3.62091	
3.65143	
3.6438	
3.69415	
3.7796	
3.87726	
3.89862	
3.91388	
3.77655	
3.70331	
3.52173	
3.42865	
3.39813	
3.37372	
3.40424	
3.52936	
3.55682	
3.65753	
3.85895	
4.08325	
4.13818	
4.11835	
4.0863	
4.05731	
4.04053	
4.00238	
3.99017	
3.9566	
3.90167	
3.86353	
3.84369	
3.78418	
3.7674	
3.71246	
3.63007	
3.45154	
3.27759	
3.19366	
3.26385	
3.34778	
3.4668	
3.6087	
3.78113	
4.02069	
4.0741	
4.1748	
4.27094	
4.23126	
4.14124	
3.95203	
3.86505	
3.87268	
3.86658	
3.82538	
3.72162	
3.59497	
3.41797	
3.39508	
3.42255	
3.49884	
3.61328	
3.71857	
3.83148	
3.89252	
3.96576	
3.98254	
4.00696	
4.02222	
3.97949	
3.92303	
3.84521	
3.70941	
3.67432	
3.51105	
3.28522	
3.18298	
3.14789	
3.23639	
3.44238	
3.64227	
3.82996	
3.98254	
3.91388	
3.84216	
3.91388	
4.00848	
4.03595	
4.14581	
4.22058	
4.29382	
4.21906	
4.19159	
4.13818	
3.98102	
3.862	
3.71857	
3.71399	
3.7323	
3.7674	
3.83606	
3.92456	
3.97949	
4.02222	
4.01917	
4.0329	
3.99323	
3.98865	
3.76282	
3.68958	
3.76129	
3.84674	
3.88489	
3.85742	
3.75977	
3.72314	
3.80859	
3.8269	
3.79639	
3.76282	
3.80707	
3.83911	
3.91083	
3.95813	
3.91541	
3.89709	
3.94745	
3.93982	
3.92303	
3.93524	
3.92761	
3.9093	
3.88794	
3.83148	
3.79791	
3.7674	
3.69415	
3.55682	
3.4729	
3.41644	
3.27606	
3.30658	
3.43628	
3.53088	
3.63617	
3.75061	
3.87421	
3.97339	
4.06647	
4.0802	
4.1153	
4.11682	
4.05426	
3.98102	
3.98865	
4.039	
4.07867	
4.19312	
4.15802	
4.03748	
4.04663	
3.97644	
3.94897	
3.96271	
3.92609	
3.91235	
3.88947	
3.92456	
3.95966	
3.89862	
3.82996	
3.7796	
3.72772	
3.77197	
3.80249	
3.90778	
4.01459	
4.03748	
4.01306	
3.98712	
3.96271	
3.95966	
3.95966	
3.91541	
3.87115	
3.89099	
3.88947	
3.84369	
3.84216	
3.80249	
3.82843	
3.8681	
3.85284	
3.85895	
3.93524	
3.97644	
3.9978	
4.04968	
4.06952	
4.20685	
4.25415	
4.22668	
4.14124	
4.06036	
3.97949	
3.93066	
3.9444	
3.95813	
3.89099	
3.62549	
3.52173	
3.52631	
3.45306	
3.40424	
3.39661	
3.508	
3.65448	
3.77197	
3.9505	
4.15802	
4.27704	
4.34875	
4.35791	
4.33807	
4.28467	
4.15039	
4.10156	
4.00543	
3.98254	
3.99475	
4.01764	
4.11224	
4.19617	
4.19617	
4.07715	
3.92914	
3.82843	
3.70331	
3.66669	
3.72467	
3.76282	
3.83606	
3.91083	
3.96729	
3.99933	
3.95966	
3.92761	
3.91998	
3.84369	
3.83148	
3.84369	
3.9093	
3.97034	
4.06494	
4.14429	
4.1275	
4.14276	
4.11224	
4.09851	
4.02222	
3.93677	
3.89099	
3.79639	
3.74451	
3.73535	
3.74908	
3.79333	
3.87421	
3.97491	
3.97949	
4.02374	
3.9566	
3.88489	
3.81317	
3.85437	
3.90472	
3.98407	
4.07257	
4.15039	
4.17938	
4.16718	
4.17938	
4.18396	
4.18091	
4.13971	
4.02832	
3.9978	
3.95203	
3.92303	
3.87878	
3.64532	
3.5675	
3.55377	
3.54767	
3.64227	
3.69415	
3.77655	
3.79028	
3.85895	
3.82843	
3.862	
3.862	
3.93372	
4.0741	
4.1687	
4.19159	
4.14276	
4.19006	
4.31671	
4.34875	
4.27094	
4.17328	
4.17175	
4.11835	
4.09393	
4.07715	
4.05273	
4.04816	
4.02527	
3.9917	
3.98865	
3.97949	
4.00238	
4.02832	
4.02222	
4.00238	
4.00238	
4.00391	
3.98102	
3.93066	
3.91388	
3.89709	
3.89862	
3.90778	
3.93829	
3.93829	
3.85437	
3.79791	
3.75061	
3.75519	
3.66364	
3.62549	
3.69568	
3.78265	
3.84369	
3.92151	
3.99933	
4.09698	
4.1214	
4.06342	
4.0451	
4.01459	
3.96881	
4.03748	
4.06799	
4.15649	
4.16718	
4.19464	
4.14734	
4.10309	
4.10614	
4.08173	
4.12598	
4.14886	
4.14124	
4.08173	
4.03595	
4.01611	
3.9917	
3.95813	
3.80249	
3.80859	
3.8269	
3.81927	
3.82385	
3.81927	
3.86353	
3.91846	
3.97797	
4.04663	
4.07257	
4.09393	
4.1214	
4.05121	
3.9856	
3.78265	
3.75061	
3.73383	
3.74908	
3.7796	
3.82538	
3.96271	
4.03595	
4.0741	
4.1275	
4.14276	
4.18243	
4.16565	
4.16107	
4.06342	
4.00391	
3.96118	
3.93829	
3.97644	
3.9566	
3.88336	
3.72467	
3.65143	
3.65906	
3.70178	
3.78265	
3.85437	
3.96729	
4.01306	
4.039	
4.06799	
4.07715	
4.07867	
4.12903	
4.21295	
4.29077	
4.23889	
4.13971	
4.09546	
4.05273	
3.96576	
3.9505	
3.93982	
3.93372	
3.93677	
3.97949	
4.00543	
3.9978	
3.92609	
3.91846	
3.92151	
3.92914	
3.91693	
3.88947	
3.90625	
3.92303	
3.89404	
3.90778	
3.9093	
3.94135	
3.97949	
4.03442	
4.00696	
3.8681	
3.70636	
3.5965	
3.62396	
3.66364	
3.71246	
3.75366	
3.84216	
3.88794	
3.87573	
3.89709	
3.92303	
4.00696	
4.14581	
4.245	
4.2572	
4.23279	
4.18701	
4.15955	
4.1214	
4.10004	
4.06189	
4.03595	
3.89709	
3.78571	
3.77502	
3.75977	
3.73688	
3.72162	
3.69873	
3.76434	
3.84674	
3.92914	
4.01306	
4.07562	
4.07715	
4.02222	
4.08325	
4.10919	
4.13208	
4.08173	
4.02527	
3.98407	
4.00543	
4.00543	
4.00238	
3.97949	
4.03137	
4.04358	
4.00085	
3.9505	
3.93677	
3.93829	
3.93829	
3.90472	
3.83453	
3.80859	
3.78876	
3.76587	
3.69873	
3.77502	
3.87421	
3.90625	
3.91693	
3.91846	
3.89709	
3.87573	
3.87878	
3.88947	
3.87115	
3.83301	
3.84216	
3.95203	
4.06799	
4.09851	
4.04968	
4.02069	
3.9978	
3.97644	
3.96118	
3.99323	
4.00391	
3.96576	
3.88489	
3.81317	
3.74451	
3.70789	
3.72314	
3.69263	
3.66364	
3.63159	
3.67584	
3.77045	
3.82843	
3.87421	
3.95203	
3.9856	
4.00543	
4.06647	
4.10614	
4.13208	
4.1626	
4.10461	
4.1275	
4.1214	
4.12445	
4.08325	
4.10614	
4.13818	
4.14429	
4.09546	
4.04205	
3.97339	
3.89862	
3.84521	
3.82233	
3.83148	
3.83148	
3.83453	
3.81622	
3.84521	
4.02374	
4.14886	
4.16718	
4.14276	
4.15039	
4.09698	
4.03748	
3.99323	
3.91998	
3.85742	
3.83301	
3.85437	
3.85132	
3.86047	
3.88184	
3.88947	
3.91541	
3.9444	
3.95508	
3.95355	
3.9566	
3.94287	
3.93524	
3.91541	
3.92303	
3.91998	
3.93677	
3.94897	
3.95203	
3.9566	
3.96881	
3.97644	
3.96881	
3.93677	
3.91998	
3.91235	
3.92151	
3.92456	
3.93372	
3.97949	
4.04205	
4.08783	
4.15192	
4.15192	
4.13208	
4.09241	
4.06799	
4.04663	
3.98102	
3.92609	
3.93372	
3.90472	
3.87726	
3.88184	
3.9032	
3.97644	
3.99017	
3.96729	
3.95355	
