14.9368	
14.8666	
14.8788	
14.9094	
14.9292	
14.9338	
14.9612	
14.9612	
14.9658	
15.0055	
15.0116	
14.9918	
14.9414	
14.9338	
14.9475	
14.9399	
14.9338	
14.9353	
14.8697	
14.9048	
14.9155	
14.9216	
14.9475	
14.9597	
14.9628	
14.9643	
15.0131	
15.0055	
14.9612	
14.9475	
14.9292	
14.9384	
14.9353	
14.9353	
14.8697	
14.8682	
14.917	
14.9094	
14.917	
14.949	
14.9567	
14.9612	
14.9582	
15.0055	
14.9887	
14.9323	
14.9429	
14.9399	
14.9323	
14.9292	
14.9277	
14.859	
14.8727	
14.9109	
14.8834	
14.9063	
14.9506	
14.9475	
14.9521	
14.9963	
15.004	
14.9826	
14.9139	
14.9078	
14.9338	
14.9292	
14.9231	
14.9231	
14.8651	
14.8865	
14.8758	
14.8819	
14.9399	
14.9475	
14.9506	
14.9521	
15.0055	
15.0009	
14.9597	
14.9078	
14.9261	
14.9323	
14.9292	
14.9261	
14.8651	
14.859	
14.9063	
14.9109	
14.9155	
14.9429	
14.9521	
14.9521	
14.9567	
15.004	
14.9841	
14.9155	
14.92	
14.9323	
14.9231	
14.92	
14.9185	
14.8514	
14.8651	
14.9002	
14.8804	
14.888	
14.9399	
14.946	
14.9445	
14.975	
14.9948	
14.9719	
14.9216	
14.9094	
14.9307	
14.9231	
14.9216	
14.92	
14.8605	
14.8849	
14.8865	
14.8895	
14.9338	
14.9429	
14.949	
14.9475	
15.0009	
14.9948	
14.9506	
14.9261	
14.9094	
14.9231	
14.9216	
14.9216	
14.856	
14.859	
14.8972	
14.9002	
14.9063	
14.9338	
14.9414	
14.9429	
14.9445	
14.9918	
14.9719	
14.9155	
14.9155	
14.9231	
14.92	
14.9185	
14.9139	
14.8422	
14.8575	
14.9048	
14.8727	
14.8865	
14.9399	
14.9414	
14.9414	
14.9734	
14.9918	
14.9719	
14.8972	
14.888	
14.9231	
14.917	
14.9139	
14.9109	
14.8499	
14.8682	
14.8758	
14.8697	
14.9261	
14.9353	
14.9399	
14.9384	
14.9902	
14.9841	
14.9399	
14.9323	
14.9185	
14.9185	
14.9139	
14.9139	
14.8468	
14.8514	
14.8788	
14.8911	
14.9002	
14.9307	
14.9384	
14.9384	
14.9399	
14.9841	
14.9536	
14.9292	
14.9033	
14.9216	
14.9155	
14.9139	
14.9094	
14.8392	
14.8514	
14.888	
14.8697	
14.8727	
14.9323	
14.9338	
14.9353	
14.9673	
14.9811	
14.9643	
14.9017	
14.8956	
14.9185	
14.9094	
14.9063	
14.9048	
14.8468	
14.8727	
14.8682	
14.8773	
14.9155	
14.9323	
14.9323	
14.9307	
14.978	
14.9765	
14.9384	
14.92	
14.9124	
14.9078	
14.9063	
14.9063	
14.8392	
14.8422	
14.8834	
14.8911	
14.8956	
14.9231	
14.9277	
14.9292	
14.9323	
14.9765	
14.9521	
14.8895	
14.8758	
14.9094	
14.9063	
14.9048	
14.9033	
14.8346	
14.8453	
14.888	
14.8804	
14.8788	
14.9292	
14.9307	
14.9307	
14.9536	
14.9811	
14.9582	
14.888	
14.8773	
14.9124	
14.9063	
14.9017	
14.9002	
14.8422	
14.8636	
14.8666	
14.8727	
14.9155	
14.9277	
14.9307	
14.9307	
14.9765	
14.9689	
14.9338	
14.9078	
14.9002	
14.9048	
14.9048	
14.9033	
14.83	
14.8376	
14.8773	
14.8834	
14.8895	
14.9155	
14.9231	
14.9231	
14.9292	
14.9704	
14.9521	
14.8895	
14.9063	
14.9048	
14.9033	
14.9017	
14.9002	
14.8285	
14.8331	
14.8773	
14.856	
14.8636	
14.9185	
14.9231	
14.9216	
14.9368	
14.9628	
14.949	
14.8834	
14.8804	
14.9017	
14.8956	
14.8956	
14.888	
14.8209	
14.8483	
14.8499	
14.8499	
14.9017	
14.9124	
14.9139	
14.9185	
14.9704	
14.9612	
14.9277	
14.8956	
14.8987	
14.8987	
14.8941	
14.8941	
14.827	
14.8331	
14.8682	
14.8666	
14.8758	
14.9063	
14.9139	
14.917	
14.9216	
14.9734	
14.9521	
14.8911	
14.8972	
14.9048	
14.8972	
14.8956	
14.8911	
14.8193	
14.8331	
14.8788	
14.8361	
14.8514	
14.9124	
14.9139	
14.9155	
14.9323	
14.9689	
14.9353	
14.888	
14.8788	
14.8956	
14.8895	
14.8865	
14.8849	
14.8285	
14.8468	
14.8651	
14.8682	
14.8987	
14.9109	
14.9139	
14.9155	
14.9658	
14.9536	
14.9261	
14.8972	
14.8865	
14.8911	
14.8865	
14.888	
14.8239	
14.8239	
14.8651	
14.8773	
14.8788	
14.9048	
14.9109	
14.9139	
14.917	
14.9612	
14.9399	
14.8941	
14.8941	
14.9002	
14.8911	
14.888	
14.888	
14.8209	
14.827	
14.8727	
14.8697	
14.8712	
14.9078	
14.9094	
14.9139	
14.9277	
14.9643	
14.9429	
14.8788	
14.8682	
14.8972	
14.8911	
14.8819	
14.8834	
14.8224	
14.8376	
14.8438	
14.8468	
14.8987	
14.9048	
14.9033	
14.9078	
14.9582	
14.9506	
14.9124	
14.8865	
14.8834	
14.8834	
14.8819	
14.8788	
14.8148	
14.8178	
14.8651	
14.8544	
14.8605	
14.9002	
14.9017	
14.9063	
14.9078	
14.9521	
14.9384	
14.9002	
14.8941	
14.8941	
14.8865	
14.8819	
14.8788	
14.8132	
14.8193	
14.859	
14.8651	
14.8407	
14.8987	
14.9017	
14.9033	
14.917	
14.9399	
14.9231	
14.8941	
14.8834	
14.8865	
14.8849	
14.8758	
14.8788	
14.8117	
14.83	
14.8636	
14.8438	
14.8911	
14.8987	
14.9033	
14.9017	
14.9475	
14.9429	
14.9109	
14.888	
14.8804	
14.8819	
14.8819	
14.8788	
14.8117	
14.8132	
14.8514	
14.8636	
14.8575	
14.8941	
14.9002	
14.9017	
14.9033	
14.9536	
14.9368	
14.8666	
14.8651	
14.8834	
14.8788	
14.8727	
14.8712	
14.8026	
14.8071	
14.8514	
14.8468	
14.8468	
14.8941	
14.8972	
14.8987	
14.9048	
14.949	
14.9292	
14.8682	
14.8499	
14.8788	
14.8758	
14.8727	
14.8712	
14.8087	
14.827	
14.8544	
14.8438	
14.8895	
14.8956	
14.9017	
14.8987	
14.9567	
14.9429	
14.9063	
14.8788	
14.8712	
14.8804	
14.8727	
14.8727	
14.8071	
14.8132	
14.8499	
14.8544	
14.8636	
14.8865	
14.8956	
14.8972	
14.8956	
14.9445	
14.9277	
14.8758	
14.8529	
14.8773	
14.8743	
14.8712	
14.8712	
14.798	
14.8041	
14.8468	
14.8331	
14.8361	
14.8865	
14.8895	
14.8895	
14.8972	
14.9353	
14.9155	
14.859	
14.8544	
14.8743	
14.8666	
14.8682	
14.8666	
14.8026	
14.8132	
14.8254	
14.8483	
14.8804	
14.888	
14.8895	
14.8911	
14.9353	
14.9368	
14.9002	
14.8819	
14.8666	
14.8682	
14.8651	
14.8651	
14.7919	
14.8026	
14.8438	
14.8346	
14.8453	
14.8743	
14.8834	
14.8834	
14.888	
14.9353	
14.9185	
14.8605	
14.8712	
14.8682	
14.859	
14.8575	
14.856	
14.7842	
14.7934	
14.8346	
14.8087	
14.8132	
14.8743	
14.8773	
14.8804	
14.8865	
14.9307	
14.9094	
14.8468	
14.8392	
14.8605	
14.8544	
14.8529	
14.8483	
14.7858	
14.798	
14.8148	
14.8224	
14.8666	
14.8727	
14.8758	
14.8758	
14.9261	
14.9231	
14.8956	
14.859	
14.8514	
14.856	
14.8544	
14.8529	
14.7934	
14.7949	
14.8361	
14.8422	
14.8392	
14.8727	
14.8758	
14.8804	
14.8834	
14.9292	
14.9124	
14.856	
14.8483	
14.8636	
14.856	
14.8529	
14.8483	
14.7903	
14.7827	
14.8285	
14.8193	
14.8483	
14.8727	
14.8743	
14.8788	
14.8849	
14.9277	
14.917	
14.8361	
14.8285	
14.8651	
14.8605	
14.8544	
14.856	
14.7873	
14.801	
14.8148	
14.8254	
14.8666	
14.8727	
14.8819	
14.8804	
14.9323	
14.9277	
14.8941	
14.8682	
14.8544	
14.8605	
14.8544	
14.8529	
14.7858	
14.7858	
14.83	
14.8346	
14.8422	
14.8682	
14.8743	
14.8758	
14.8788	
14.9231	
14.9139	
14.8483	
14.8651	
14.8575	
14.8514	
14.8499	
14.8453	
14.7812	
14.7812	
14.8285	
14.8163	
14.8102	
14.8682	
14.8727	
14.8743	
14.8773	
14.9261	
14.9033	
14.8682	
14.8529	
14.8605	
14.8529	
14.8453	
14.8468	
14.7797	
14.798	
14.8178	
14.8026	
14.859	
14.8682	
14.8712	
14.8712	
14.9277	
14.9292	
14.8865	
14.8712	
14.856	
14.8544	
14.8529	
14.8438	
14.7842	
14.7797	
14.8132	
14.8209	
14.8239	
14.8636	
14.8682	
14.8682	
14.8773	
14.9261	
14.9139	
14.859	
14.8651	
14.8575	
14.8483	
14.8483	
14.8438	
14.7675	
14.7766	
14.8193	
14.8102	
14.8193	
14.8651	
14.8712	
14.8758	
14.8758	
14.9216	
14.9002	
14.8514	
14.8438	
14.856	
14.8514	
14.8468	
14.8453	
14.7766	
14.7903	
14.8148	
14.8224	
14.8544	
14.8666	
14.8727	
14.8712	
14.9185	
14.9261	
14.8895	
14.859	
14.8575	
14.8529	
14.8468	
14.8499	
14.7827	
14.7873	
14.8163	
14.8254	
14.8361	
14.8575	
14.8666	
14.8727	
14.8727	
14.9261	
14.9109	
14.8529	
14.8224	
14.8499	
14.8438	
14.8438	
14.8453	
14.7675	
14.7736	
14.8209	
14.8087	
14.8087	
14.8651	
14.8666	
14.8682	
14.8712	
14.9231	
14.9017	
14.8407	
14.8285	
14.8514	
14.8453	
14.8407	
14.8407	
14.772	
14.7842	
14.801	
14.8285	
14.8575	
14.8651	
14.8682	
14.8682	
14.9277	
14.9216	
14.8819	
14.8544	
14.8438	
14.8499	
14.8422	
14.8392	
14.7766	
14.772	
14.8117	
14.8132	
14.8224	
14.8514	
14.8605	
14.8651	
14.8651	
14.9094	
14.9033	
14.8422	
14.8376	
14.8453	
14.8422	
14.8376	
14.8376	
14.7583	
14.7705	
14.8132	
14.798	
14.8163	
14.856	
14.859	
14.8636	
14.8697	
14.9109	
14.888	
14.8407	
14.8407	
14.8453	
14.8407	
14.8376	
14.8376	
14.7659	
14.7812	
14.8087	
14.8087	
14.8483	
14.8575	
14.859	
14.8605	
14.9139	
14.9124	
14.8758	
14.856	
14.8438	
14.8422	
14.8422	
14.8361	
14.7705	
14.7644	
14.801	
14.8193	
14.8224	
14.8544	
14.859	
14.8666	
14.8666	
14.9155	
14.9002	
14.8438	
14.827	
14.8407	
14.8376	
14.8376	
14.8346	
14.7568	
14.7705	
14.8163	
14.801	
14.8102	
14.8544	
14.856	
14.8605	
14.8636	
14.9094	
14.888	
14.8285	
14.8178	
14.8422	
14.8392	
14.8346	
14.8361	
14.7705	
14.7827	
14.8071	
14.8026	
14.8468	
14.8605	
14.8636	
14.8651	
14.917	
14.9155	
14.8834	
14.8422	
14.8376	
14.8438	
14.8422	
14.8376	
14.7751	
14.7736	
14.8041	
14.8148	
14.8239	
14.8483	
14.9139	
14.859	
14.859	
14.9124	
14.9002	
14.8346	
14.8163	
14.8422	
14.8376	
14.83	
14.83	
14.7629	
14.7583	
14.8117	
14.7827	
14.801	
14.8483	
14.8544	
14.8514	
14.8544	
14.9002	
14.8712	
14.8193	
14.8148	
14.8361	
14.827	
14.8224	
14.8285	
14.7537	
14.7736	
14.8026	
14.7766	
14.8483	
14.8529	
14.8544	
14.859	
14.9124	
14.9109	
14.8727	
14.8483	
14.8438	
14.8422	
14.8407	
14.8376	
14.7705	
14.7751	
14.8026	
14.8026	
14.8087	
14.8468	
14.859	
14.8636	
14.8605	
14.9109	
14.9002	
14.8407	
14.8346	
14.8392	
14.8346	
14.8346	
14.8331	
14.7598	
14.7614	
14.8117	
14.7873	
14.7888	
14.8529	
14.856	
14.8575	
14.8575	
14.9063	
14.8743	
14.8346	
14.8178	
14.8392	
14.8392	
14.83	
14.83	
14.7598	
14.7812	
14.798	
14.7919	
14.8438	
14.8529	
14.856	
14.859	
14.9017	
14.9033	
14.8743	
14.8499	
14.8376	
14.8361	
14.8331	
14.8285	
14.7629	
14.7629	
14.7873	
14.8117	
14.8163	
14.8468	
14.8544	
14.8575	
14.856	
14.9139	
14.8987	
14.8453	
14.8361	
14.83	
14.8254	
14.827	
14.8239	
14.7552	
14.7629	
14.8026	
14.801	
14.7903	
14.8407	
14.8453	
14.8499	
14.8529	
14.9033	
14.8743	
14.8117	
14.8071	
14.8331	
14.83	
14.83	
14.8285	
14.7537	
14.7751	
14.7903	
14.801	
14.8438	
14.8514	
14.8544	
14.8544	
14.9002	
14.8956	
14.8682	
14.8468	
14.8239	
14.8331	
14.83	
14.8254	
14.7614	
14.7629	
14.7919	
14.8087	
14.8148	
14.8453	
14.8514	
14.856	
14.8529	
14.9033	
14.8865	
14.8331	
14.8331	
14.827	
14.83	
14.8285	
14.83	
14.7537	
14.7598	
14.8102	
14.7949	
14.7751	
14.8514	
14.8544	
14.8544	
14.859	
14.9033	
14.8788	
14.8514	
14.8407	
14.8392	
14.8361	
14.8285	
14.83	
14.7583	
14.7797	
14.8132	
14.7903	
14.8438	
14.8529	
14.8544	
14.856	
14.9155	
14.9078	
14.8743	
14.8529	
14.8422	
14.8346	
14.8285	
14.8285	
14.7614	
14.7614	
14.798	
14.8087	
14.8087	
14.8438	
14.8529	
14.856	
14.8544	
14.9109	
14.8865	
14.8331	
14.8239	
14.8254	
14.83	
14.827	
14.8254	
14.743	
14.7598	
14.8071	
14.7812	
14.7919	
14.8468	
14.8529	
14.8529	
14.8544	
14.8911	
14.8804	
14.8483	
14.8193	
14.8346	
14.8254	
14.8254	
14.827	
14.7552	
14.772	
14.7949	
14.8026	
14.8422	
14.8438	
14.8468	
14.8483	
14.8987	
14.8987	
14.8712	
14.8438	
14.8254	
14.8285	
14.827	
14.8193	
14.7614	
14.7568	
14.798	
14.8117	
14.8148	
14.8422	
14.8438	
14.8483	
14.8483	
14.9048	
14.8804	
14.8468	
14.8178	
14.8193	
14.8254	
14.8209	
14.8209	
14.7491	
14.7583	
14.8026	
14.801	
14.7964	
14.8407	
14.8468	
14.8514	
14.8499	
14.9048	
14.8727	
14.8102	
14.7964	
14.8346	
14.827	
14.8239	
14.8224	
14.7598	
14.7736	
14.801	
14.8026	
14.8392	
14.8438	
14.8438	
14.8483	
14.9017	
14.888	
14.8651	
14.8422	
14.8254	
14.8285	
14.827	
14.8209	
14.7629	
14.7568	
14.7888	
14.8102	
14.8178	
14.8392	
14.8453	
14.8483	
14.8499	
14.8956	
14.8804	
14.8376	
14.827	
14.8209	
14.8254	
14.8209	
14.8224	
14.7461	
14.7614	
14.801	
14.7873	
14.7964	
14.8392	
14.8407	
14.8438	
14.8453	
14.8911	
14.8499	
14.8209	
14.801	
14.8239	
14.8193	
14.8178	
14.8178	
14.7522	
14.7705	
14.7949	
14.7873	
14.8331	
14.8407	
14.8407	
14.8392	
14.8972	
14.8865	
14.856	
14.8331	
14.8224	
14.8209	
14.8163	
14.8148	
14.7568	
14.7583	
14.772	
14.7903	
14.7934	
14.8331	
14.8376	
14.8407	
14.8407	
14.888	
14.8651	
14.8254	
14.8285	
14.8117	
14.8178	
14.8163	
14.8132	
14.74	
14.7507	
14.798	
14.7781	
14.7705	
14.8331	
14.8361	
14.8407	
14.8438	
14.888	
14.8483	
14.8148	
14.8026	
14.8224	
14.8132	
14.8117	
14.8102	
14.7507	
14.7629	
14.7766	
14.7598	
14.8224	
14.8285	
14.8361	
14.8376	
14.8834	
14.8773	
14.859	
14.827	
14.8056	
14.8209	
14.8148	
14.8148	
14.7583	
14.7537	
14.7736	
14.801	
14.8026	
14.8285	
14.8331	
14.8392	
14.8422	
14.8834	
14.8666	
14.8331	
14.7919	
14.8087	
14.8163	
14.8117	
14.8117	
14.74	
14.7461	
14.7903	
14.7873	
14.7903	
14.827	
14.83	
14.8331	
14.8376	
14.8727	
14.8422	
14.798	
14.8148	
14.8178	
14.8132	
14.8087	
14.8071	
14.7446	
14.7614	
14.7781	
14.7812	
14.8239	
14.827	
14.83	
14.83	
14.8834	
14.8743	
14.8483	
14.8163	
14.798	
14.8148	
14.8117	
14.8071	
14.7507	
14.7461	
14.7675	
14.7858	
14.7964	
14.8224	
14.8331	
14.8376	
14.8361	
14.8834	
14.8666	
14.83	
14.8178	
14.798	
14.8163	
14.8132	
14.8117	
14.7446	
14.7522	
14.7903	
14.7736	
14.7858	
14.8239	
14.83	
14.8361	
14.8361	
14.8804	
14.8376	
14.8224	
14.8071	
14.8163	
14.8117	
14.8056	
14.8056	
14.7461	
14.7568	
14.7812	
14.7736	
14.8041	
14.8254	
14.8285	
14.83	
14.8773	
14.8788	
14.8438	
14.8239	
14.8148	
14.8102	
14.8056	
14.801	
14.743	
14.7415	
14.7858	
14.7812	
14.7751	
14.8178	
14.8239	
14.8285	
14.8331	
14.8743	
14.8575	
14.83	
14.8193	
14.7964	
14.8087	
14.8071	
14.8041	
14.74	
14.743	
14.7888	
14.7858	
14.7873	
14.8224	
14.83	
14.8331	
14.8331	
14.8804	
14.8544	
14.8239	
14.8163	
14.8117	
14.8056	
14.8041	
14.8041	
14.7308	
14.7568	
14.7827	
14.7873	
14.8026	
14.8224	
14.8254	
14.8224	
14.8743	
14.8666	
14.8468	
14.8117	
14.7949	
14.8071	
14.801	
14.798	
14.7446	
14.74	
14.7659	
14.7858	
14.7873	
14.8148	
14.8224	
14.8239	
14.827	
14.8758	
14.8575	
14.8132	
14.8026	
14.7919	
14.8071	
14.8041	
14.7949	
14.7339	
14.7354	
14.7812	
14.7827	
14.7827	
14.8178	
14.8224	
14.8239	
14.827	
14.8666	
14.8117	
14.7964	
14.7873	
14.8071	
14.8026	
14.7949	
14.7964	
14.7278	
14.7491	
14.7659	
14.7827	
14.801	
14.8148	
14.8209	
14.8193	
14.8712	
14.8697	
14.8392	
14.7873	
14.7797	
14.8056	
14.798	
14.7949	
14.7629	
14.7278	
14.7568	
14.7812	
14.7919	
14.8102	
14.8193	
14.8239	
14.8239	
14.8682	
14.8514	
14.8087	
14.8102	
14.7934	
14.8026	
14.798	
14.801	
14.7278	
14.7369	
14.7797	
14.7858	
14.7705	
14.8163	
14.8209	
14.8254	
14.8285	
14.8651	
14.8193	
14.8163	
14.7934	
14.801	
14.8026	
14.7903	
14.7949	
14.7263	
14.7476	
14.7659	
14.7507	
14.7964	
14.8132	
14.8224	
14.8193	
14.8682	
14.8712	
14.8392	
14.8163	
14.7919	
14.798	
14.7919	
14.7888	
14.7659	
14.7217	
14.7339	
14.7614	
14.7659	
14.7964	
14.8087	
14.8117	
14.8148	
14.8758	
14.8499	
14.8163	
14.7675	
14.7812	
14.7919	
14.7934	
14.7888	
14.7186	
14.7263	
14.7552	
14.7308	
14.7522	
14.8087	
14.8148	
14.8163	
14.8178	
14.8605	
14.8193	
14.7827	
14.7766	
14.7949	
14.7934	
14.7903	
14.7903	
14.7232	
14.743	
14.7614	
14.7507	
14.7858	
14.8132	
14.8163	
14.8178	
14.8544	
14.8605	
14.8468	
14.8041	
14.7873	
14.7964	
14.7903	
14.7888	
14.7598	
14.7247	
14.7415	
14.7736	
14.7812	
14.8056	
14.8117	
14.8163	
14.8193	
14.8727	
14.8483	
14.8117	
14.7781	
14.7736	
14.7934	
14.7934	
14.7888	
14.7247	
14.7217	
14.7675	
14.7537	
14.7568	
14.8087	
14.8102	
14.8148	
14.8148	
14.8605	
14.8193	
14.801	
14.7675	
14.7964	
14.7903	
14.7903	
14.7903	
14.7232	
14.7461	
14.7598	
14.7522	
14.7903	
14.8117	
14.8148	
14.8148	
14.8651	
14.8666	
14.8361	
14.8071	
14.7797	
14.801	
14.7903	
14.7873	
14.7812	
14.7232	
14.7339	
14.7629	
14.7736	
14.8071	
14.8132	
14.8163	
14.8209	
14.8758	
14.8499	
14.8071	
14.7797	
14.7766	
14.7949	
14.7934	
14.7919	
14.7247	
14.7812	
14.7583	
14.7583	
14.7583	
14.8117	
14.8193	
14.8163	
14.8193	
14.8682	
14.8148	
14.798	
14.7842	
14.8056	
14.7934	
14.7888	
14.7919	
14.7247	
14.743	
14.7629	
14.7552	
14.7781	
14.8148	
14.8148	
14.8163	
14.8605	
14.8666	
14.8346	
14.8102	
14.7903	
14.798	
14.7919	
14.7888	
14.7842	
14.7247	
14.7339	
14.7675	
14.772	
14.8041	
14.8087	
14.8163	
14.8438	
14.8712	
14.8453	
14.8239	
14.7659	
14.7781	
14.7919	
14.7919	
14.7888	
14.7217	
14.7217	
14.7675	
14.7507	
14.7552	
14.8071	
14.8132	
14.8178	
14.8193	
14.8544	
14.83	
14.7858	
14.7766	
14.7964	
14.7934	
14.7888	
14.7858	
14.7217	
14.7369	
14.7583	
14.7568	
14.772	
14.8056	
14.8071	
14.8117	
14.856	
14.8544	
14.8361	
14.827	
14.7659	
14.7919	
14.8453	
14.7858	
14.7827	
14.7186	
14.7293	
14.8056	
14.7751	
14.7964	
14.8071	
14.8132	
14.8102	
14.8636	
14.8453	
14.801	
14.7629	
14.7659	
14.7842	
14.7827	
14.7842	
14.7217	
14.7202	
14.7537	
14.7446	
14.7446	
14.801	
14.8056	
14.8102	
14.8087	
14.8544	
14.8178	
14.7888	
14.7675	
14.7949	
14.7842	
14.7812	
14.7842	
14.7171	
14.7354	
14.7629	
14.74	
14.7812	
14.8071	
14.8209	
14.8102	
14.8514	
14.8651	
14.8346	
14.8056	
14.7827	
14.8132	
14.7858	
14.7842	
14.7858	
14.7186	
14.7354	
14.7552	
14.7552	
14.8041	
14.8087	
14.8102	
14.8087	
14.8651	
14.8453	
14.8117	
14.7751	
14.7751	
14.7888	
14.7873	
14.7858	
14.7171	
14.7186	
14.7537	
14.7354	
14.743	
14.7964	
14.8071	
14.8148	
14.8148	
14.8544	
14.8438	
14.7903	
14.7675	
14.7934	
14.7858	
14.7858	
14.7842	
14.7156	
14.7308	
14.7675	
14.743	
14.7644	
14.8041	
14.8102	
14.8117	
14.8529	
14.8575	
14.8392	
14.7797	
14.7598	
14.7903	
14.7873	
14.7797	
14.7812	
14.7263	
14.7369	
14.7675	
14.772	
14.7964	
14.8041	
14.8056	
14.8071	
14.8529	
14.8407	
14.8087	
14.7842	
14.7751	
14.7842	
14.7842	
14.7827	
14.7202	
14.7293	
14.7644	
14.7537	
14.7598	
14.7949	
14.8071	
14.8087	
14.8148	
14.8575	
14.8224	
14.7781	
14.7934	
14.7949	
14.7888	
14.7827	
14.7812	
14.7141	
14.7278	
14.7568	
14.7552	
14.7781	
14.8026	
14.8041	
14.8071	
14.8468	
14.8544	
14.827	
14.7919	
14.7476	
14.7903	
14.7827	
14.7812	
14.7812	
14.7171	
14.7308	
14.7751	
14.7552	
14.7934	
14.7964	
14.8041	
14.8209	
14.856	
14.8407	
14.7949	
14.7903	
14.7751	
14.7797	
14.7812	
14.7766	
14.7125	
14.7125	
14.7491	
14.7247	
14.7369	
14.7888	
14.7934	
14.7964	
14.798	
14.8438	
14.8071	
14.7873	
14.7751	
14.7781	
14.7736	
14.7736	
14.7736	
14.7034	
14.7202	
14.7507	
14.7461	
14.7537	
14.7903	
14.7903	
14.7934	
14.8361	
14.8407	
14.8132	
14.7766	
14.7705	
14.7827	
14.7842	
14.772	
14.772	
14.7095	
14.7247	
14.7552	
14.7522	
14.7858	
14.7934	
14.798	
14.7964	
14.8499	
14.8331	
14.798	
14.7797	
14.7675	
14.772	
14.772	
14.7705	
14.711	
14.7095	
14.7491	
14.7415	
14.7552	
14.7873	
14.7888	
14.7934	
14.7934	
14.8438	
14.8117	
14.7644	
14.7522	
14.7781	
14.7736	
14.7705	
14.7659	
14.7003	
14.7125	
14.7446	
14.7629	
14.7888	
14.7873	
14.7934	
14.7919	
14.83	
14.8468	
14.8193	
14.7827	
14.7522	
14.7781	
14.7705	
14.7659	
14.7659	
14.6988	
14.7171	
14.7537	
14.7552	
14.7812	
14.7888	
14.7919	
14.7919	
14.8468	
14.8285	
14.7964	
14.7736	
14.7644	
14.7766	
14.772	
14.7675	
14.7049	
14.7034	
14.7507	
14.7507	
14.7415	
14.7873	
14.7903	
14.7949	
14.7964	
14.8346	
14.8132	
14.7842	
14.7629	
14.7751	
14.7705	
14.7675	
14.7675	
14.6942	
14.7064	
14.7507	
14.7308	
14.7568	
14.7842	
14.7873	
14.7888	
14.8285	
14.8392	
14.8117	
14.7873	
14.7568	
14.7705	
14.7675	
14.7629	
14.7598	
14.6973	
14.7171	
14.7232	
14.7369	
14.7751	
14.7842	
14.8041	
14.7888	
14.8438	
14.8254	
14.7934	
14.7446	
14.7614	
14.7705	
14.7629	
14.7614	
14.7034	
14.7156	
14.7263	
14.7171	
14.7202	
14.7797	
14.7842	
14.7903	
14.7903	
14.8331	
14.8056	
14.7644	
14.7522	
14.7705	
14.7644	
14.7598	
14.7614	
14.6957	
14.6973	
14.7354	
14.7308	
14.7369	
14.7827	
14.7858	
14.7873	
14.8132	
14.8346	
14.8071	
14.7781	
14.7629	
14.7675	
14.7614	
14.7568	
14.7598	
14.6973	
14.7171	
14.7415	
14.7491	
14.772	
14.7812	
14.7842	
14.7934	
14.8376	
14.8254	
14.798	
14.7446	
14.7552	
14.7659	
14.7598	
14.7583	
14.6942	
14.6927	
14.7263	
14.7171	
14.7232	
14.7766	
14.7812	
14.7842	
14.7842	
14.8376	
14.8026	
14.7552	
14.743	
14.7629	
14.7583	
14.7583	
14.7568	
14.6881	
14.6957	
14.7354	
14.7141	
14.7446	
14.7736	
14.7797	
14.7812	
14.8041	
14.8239	
14.798	
14.7659	
14.7537	
14.7644	
14.7797	
14.7583	
14.7537	
14.6927	
14.7171	
14.7354	
14.7446	
14.7675	
14.7797	
14.7797	
14.7842	
14.8376	
14.8239	
14.7842	
14.7629	
14.7507	
14.7614	
14.7568	
14.7568	
14.6896	
14.6927	
14.7339	
14.7354	
14.7354	
14.7751	
14.7766	
14.7797	
14.7827	
14.8331	
14.7934	
14.7766	
14.772	
14.7644	
14.7614	
14.7583	
14.7598	
14.6866	
14.6957	
14.7476	
14.7278	
14.7522	
14.7781	
14.7858	
14.7827	
14.8041	
14.8361	
14.8087	
14.7842	
14.7705	
14.7842	
14.7598	
14.7552	
14.7583	
14.6912	
14.7171	
14.7293	
14.74	
14.7888	
14.7797	
14.7827	
14.7827	
14.8346	
14.8285	
14.7842	
14.7583	
14.7842	
14.7659	
14.7583	
14.7598	
14.6927	
14.6927	
14.7339	
14.7171	
14.743	
14.772	
14.7797	
14.7827	
14.7812	
14.8254	
14.7842	
14.7873	
14.7751	
14.7675	
14.7629	
14.7614	
14.7552	
14.6912	
14.6973	
14.743	
14.7278	
14.7415	
14.7766	
14.7812	
14.7827	
14.801	
14.8285	
14.8071	
14.7659	
14.7583	
14.7644	
14.7598	
14.7675	
14.7552	
14.6881	
14.7125	
14.7339	
14.743	
14.7705	
14.7766	
14.7934	
14.7827	
14.8254	
14.8346	
14.801	
14.7461	
14.7598	
14.7644	
14.7598	
14.7598	
14.6896	
14.7003	
14.7324	
14.7217	
14.7232	
14.772	
14.7766	
14.7827	
14.7842	
14.8254	
14.8376	
14.7507	
14.7308	
14.7675	
14.7583	
14.7537	
14.7537	
14.6866	
14.7202	
14.7339	
14.74	
14.7415	
14.7751	
14.7781	
14.7797	
14.7903	
14.8544	
14.8026	
14.7598	
14.7278	
14.7598	
14.7537	
14.7583	
14.7522	
14.7186	
14.7095	
14.7354	
14.7415	
14.7629	
14.7781	
14.7781	
14.7964	
14.8529	
14.8239	
14.7842	
14.7781	
14.7552	
14.7614	
14.7552	
14.7552	
14.6881	
14.6866	
14.7278	
14.7171	
14.7324	
14.7644	
14.7736	
14.7781	
14.7812	
14.8193	
14.8056	
14.772	
14.7766	
14.7614	
14.7552	
14.7491	
14.7598	
14.6805	
14.6835	
14.7247	
14.7156	
14.7202	
14.7705	
14.7736	
14.7736	
14.7888	
14.8254	
14.798	
14.7736	
14.7629	
14.7583	
14.7568	
14.7507	
14.7491	
14.682	
14.7034	
14.7247	
14.7278	
14.7629	
14.7705	
14.7766	
14.7736	
14.827	
14.8224	
14.7903	
14.7476	
14.7537	
14.7552	
14.7522	
14.7491	
14.682	
14.6835	
14.7263	
14.6973	
14.7156	
14.7598	
14.7705	
14.7751	
14.7781	
14.8224	
14.8026	
14.7491	
14.7324	
14.7568	
14.7522	
14.7476	
14.7446	
14.6805	
14.6896	
14.7263	
14.7171	
14.7263	
14.7629	
14.7675	
14.7736	
14.7781	
14.8239	
14.7934	
14.7583	
14.7354	
14.7568	
14.7491	
14.7446	
14.743	
14.679	
14.6973	
14.7293	
14.7324	
14.7598	
14.7659	
14.772	
14.7736	
14.8163	
14.8163	
14.7842	
14.7476	
14.7461	
14.7507	
14.7491	
14.7446	
14.679	
14.6805	
14.7217	
14.7202	
14.7278	
14.7568	
14.7629	
14.7705	
14.7705	
14.8117	
14.7949	
14.7491	
14.7369	
14.7522	
14.7461	
14.7415	
14.7369	
14.6713	
14.6835	
14.7186	
14.7202	
14.7247	
14.7614	
14.7644	
14.7644	
14.772	
14.8132	
14.7827	
14.7644	
14.7308	
14.7507	
14.7446	
14.7369	
14.7369	
14.6683	
14.6927	
14.7125	
14.7171	
14.7537	
14.7614	
14.7659	
14.7659	
14.8178	
14.8148	
14.7827	
14.7278	
14.7491	
14.7507	
14.743	
14.7369	
14.6774	
14.6896	
14.7171	
14.6988	
14.7018	
14.7568	
14.7614	
14.7675	
14.7675	
14.8178	
14.8041	
14.7476	
14.74	
14.7491	
14.743	
14.7369	
14.7354	
14.6652	
14.6744	
14.7186	
14.6973	
14.7049	
14.7583	
14.7629	
14.7659	
14.7705	
14.8087	
14.7797	
14.7598	
14.743	
14.7507	
14.743	
14.74	
14.743	
14.6744	
14.6881	
14.7217	
14.7247	
14.7522	
14.7644	
14.7644	
14.772	
14.8148	
14.8087	
14.7781	
14.7324	
14.7476	
14.7446	
14.7446	
14.74	
14.6729	
14.6774	
14.7125	
14.7018	
14.7095	
14.7552	
14.7614	
14.7629	
14.7659	
14.8117	
14.7934	
14.7308	
14.7247	
14.7491	
14.7415	
14.7369	
14.7354	
14.6667	
14.6744	
14.7141	
14.7034	
14.7141	
14.7552	
14.7614	
14.7644	
14.7705	
14.8132	
14.7797	
14.7278	
14.7064	
14.7446	
14.7491	
14.7324	
14.7324	
14.6667	
14.682	
14.7202	
14.7247	
14.743	
14.7568	
14.7583	
14.7629	
14.8087	
14.8102	
14.7781	
14.7354	
14.7324	
14.743	
14.74	
14.74	
14.6698	
14.6774	
14.7156	
14.711	
14.7095	
14.7522	
14.7598	
14.7614	
14.7629	
14.8117	
14.7934	
14.7491	
14.7308	
14.7446	
14.74	
14.7354	
14.7339	
14.6606	
14.6667	
14.7141	
14.7034	
14.7202	
14.7812	
14.7598	
14.7614	
14.7659	
14.8087	
14.7736	
14.7461	
14.7202	
14.7552	
14.7369	
14.7308	
14.7339	
14.6606	
14.6774	
14.7049	
14.7049	
14.7461	
14.7552	
14.7598	
14.7598	
14.8132	
14.8148	
14.7659	
14.7491	
14.7415	
14.74	
14.7339	
14.7324	
14.6652	
14.6652	
14.7049	
14.6881	
14.6927	
14.7491	
14.7552	
14.7598	
14.7583	
14.8178	
14.7919	
14.7491	
14.7217	
14.74	
14.7339	
14.7293	
14.7324	
14.6561	
14.6713	
14.7064	
14.6835	
14.6805	
14.7522	
14.7568	
14.7568	
14.7598	
14.8087	
14.7659	
14.7507	
14.7278	
14.74	
14.7324	
14.7263	
14.7308	
14.6622	
14.679	
14.7034	
14.7095	
14.7369	
14.7491	
14.7552	
14.7568	
14.798	
14.8071	
14.772	
14.7141	
14.7324	
14.7339	
14.7308	
14.7247	
14.6652	
14.6713	
14.7049	
14.6866	
14.6835	
14.743	
14.7507	
14.7537	
14.7552	
14.8056	
14.7919	
14.7369	
14.6973	
14.7354	
14.7308	
14.7278	
14.7278	
14.653	
14.6606	
14.711	
14.6957	
14.6927	
14.7476	
14.7491	
14.7491	
14.7537	
14.8026	
14.7522	
14.7339	
14.7141	
14.7324	
14.7263	
14.7232	
14.7263	
14.6545	
14.6729	
14.7095	
14.7156	
14.743	
14.7446	
14.7537	
14.7629	
14.8087	
14.8056	
14.7644	
14.7018	
14.7308	
14.7308	
14.7293	
14.7247	
14.6576	
14.6576	
14.7034	
14.6805	
14.682	
14.7415	
14.7476	
14.7491	
14.7522	
14.7949	
14.7842	
14.7293	
14.7095	
14.7308	
14.7278	
14.7247	
14.7278	
14.65	
14.6622	
14.7018	
14.6835	
14.6896	
14.7461	
14.7507	
14.7552	
14.7552	
14.801	
14.7675	
14.7537	
14.7247	
14.74	
14.7324	
14.7247	
14.7278	
14.6561	
14.679	
14.6912	
14.6988	
14.7461	
14.7491	
14.7522	
14.7522	
14.798	
14.8026	
14.7614	
14.7217	
14.7293	
14.7293	
14.7278	
14.7247	
14.6576	
14.6576	
14.7003	
14.6744	
14.6835	
14.7354	
14.7476	
14.7507	
14.7537	
14.798	
14.7873	
14.74	
14.7171	
14.7339	
14.7278	
14.7232	
14.7232	
14.6515	
14.6591	
14.7095	
14.6729	
14.6973	
14.7446	
14.7507	
14.7507	
14.7537	
14.801	
14.7491	
14.7461	
14.7186	
14.7339	
14.7278	
14.7263	
14.7247	
14.653	
14.679	
14.6988	
14.7141	
14.7491	
14.7507	
14.7537	
14.7568	
14.8056	
14.8071	
14.7812	
14.7247	
14.7308	
14.7354	
14.7278	
14.7263	
14.6652	
14.6606	
14.7018	
14.7018	
14.7049	
14.7415	
14.7507	
14.7537	
14.7552	
14.8041	
14.7842	
14.7461	
14.7034	
14.7293	
14.7293	
14.7232	
14.7232	
14.6469	
14.653	
14.7125	
14.6942	
14.7003	
14.7415	
14.7461	
14.7476	
14.7507	
14.798	
14.7552	
14.7339	
14.7095	
14.7308	
14.7263	
14.7232	
14.7202	
14.6515	
14.6744	
14.7018	
14.7018	
14.7369	
14.7476	
14.7507	
14.7522	
14.8071	
14.8102	
14.7766	
14.743	
14.7324	
14.7324	
14.7278	
14.7247	
14.6637	
14.6652	
14.6988	
14.6927	
14.6973	
14.7369	
14.7446	
14.7522	
14.7507	
14.7964	
14.801	
14.74	
14.7293	
14.7247	
14.7247	
14.7232	
14.7232	
14.6469	
14.6744	
14.7034	
14.6774	
14.682	
14.7461	
14.7507	
14.7522	
14.7522	
14.8163	
14.7629	
14.7247	
14.7278	
14.7339	
14.7263	
14.7202	
14.7232	
14.6683	
14.6698	
14.6973	
14.7034	
14.7324	
14.7476	
14.7491	
14.7552	
14.8178	
14.8041	
14.7751	
14.711	
14.7339	
14.7324	
14.7293	
14.7232	
14.6744	
14.6622	
14.6957	
14.6881	
14.6774	
14.7354	
14.7476	
14.7522	
14.7522	
14.8071	
14.7873	
14.7354	
14.6942	
14.7263	
14.7263	
14.7247	
14.7247	
14.6469	
14.6606	
14.7034	
14.6896	
14.6881	
14.743	
14.7476	
14.7507	
14.7537	
14.8056	
14.743	
14.7308	
14.7018	
14.7339	
14.7324	
14.7232	
14.7247	
14.65	
14.6744	
14.7049	
14.7156	
14.7278	
14.7491	
14.7491	
14.7537	
14.8041	
14.8026	
14.772	
14.7064	
14.7217	
14.7278	
14.7247	
14.7202	
14.6561	
14.653	
14.6927	
14.6729	
14.6774	
14.7369	
14.7446	
14.7491	
14.7522	
14.8026	
14.7888	
14.74	
14.7095	
14.7202	
14.7217	
14.7202	
14.7217	
14.6423	
14.6545	
14.7003	
14.6866	
14.6729	
14.743	
14.7461	
14.7476	
14.7507	
14.7964	
14.7644	
14.7446	
14.711	
14.7278	
14.7232	
14.7186	
14.7202	
14.6515	
14.679	
14.6866	
14.7003	
14.7293	
14.7446	
14.7491	
14.7491	
14.7934	
14.7964	
14.7736	
14.7141	
14.7293	
14.7232	
14.7217	
14.7156	
14.65	
14.6515	
14.6896	
14.6576	
14.679	
14.7339	
14.7415	
14.7446	
14.7461	
14.7903	
14.7781	
14.7293	
14.711	
14.7095	
14.7217	
14.7202	
14.7156	
14.6423	
14.6439	
14.7018	
14.6744	
14.6591	
14.7308	
14.7369	
14.7369	
14.7446	
14.7888	
14.7507	
14.7308	
14.7186	
14.7202	
14.7156	
14.7141	
14.7141	
14.6393	
14.6652	
14.6912	
14.6973	
14.7095	
14.7354	
14.7415	
14.743	
14.7949	
14.7964	
14.7736	
14.7034	
14.7186	
14.7217	
14.7171	
14.7125	
14.65	
14.6408	
14.6729	
14.6698	
14.682	
14.7278	
14.7354	
14.7415	
14.74	
14.7903	
14.7751	
14.7186	
14.6805	
14.6973	
14.7141	
14.711	
14.711	
14.6347	
14.6423	
14.6942	
14.679	
14.6866	
14.7308	
14.7339	
14.7369	
14.7369	
14.7858	
14.7415	
14.7217	
14.7018	
14.7156	
14.7125	
14.7049	
14.7064	
14.6347	
14.6622	
14.6805	
14.6927	
14.7034	
14.7308	
14.7339	
14.7324	
14.7842	
14.7873	
14.7522	
14.6912	
14.7095	
14.711	
14.7095	
14.7018	
14.6317	
14.6317	
14.682	
14.6576	
14.65	
14.7247	
14.7293	
14.74	
14.7354	
14.7919	
14.7705	
14.7324	
14.7202	
14.6942	
14.7095	
14.7064	
14.7064	
14.6317	
14.6393	
14.6957	
14.6835	
14.6881	
14.7278	
14.7339	
14.7354	
14.7369	
14.7888	
14.7568	
14.7324	
14.7186	
14.7156	
14.7095	
14.7064	
14.7049	
14.6347	
14.6545	
14.6713	
14.682	
14.6988	
14.7308	
14.7324	
14.7308	
14.7842	
14.7873	
14.7583	
14.6973	
14.7156	
14.7125	
14.7049	
14.7034	
14.6484	
14.6347	
14.6622	
14.6683	
14.6912	
14.7186	
14.7324	
14.7354	
14.7324	
14.7903	
14.7675	
14.7339	
14.7095	
14.6927	
14.711	
14.7064	
14.7034	
14.6347	
14.6362	
14.6881	
14.6698	
14.7018	
14.7278	
14.7324	
14.7369	
14.7415	
14.7888	
14.7552	
14.7293	
14.7003	
14.7141	
14.7095	
14.7034	
14.7095	
14.6378	
14.6545	
14.6912	
14.6927	
14.7125	
14.7308	
14.7324	
14.7354	
14.7873	
14.7903	
14.7629	
14.7202	
14.7171	
14.7156	
14.7095	
14.7064	
14.65	
14.6393	
14.6805	
14.6774	
14.679	
14.7232	
14.7324	
14.7324	
14.7354	
14.7903	
14.7705	
14.743	
14.6896	
14.6805	
14.7125	
14.7095	
14.7202	
14.6378	
14.6423	
14.6912	
14.6835	
14.6866	
14.7247	
14.7339	
14.7369	
14.7369	
14.7842	
14.7278	
14.7263	
14.679	
14.711	
14.7064	
14.7018	
14.6988	
14.6271	
14.6545	
14.6805	
14.6896	
14.7141	
14.7263	
14.7278	
14.7324	
14.7842	
14.7827	
14.7629	
14.6973	
14.7049	
14.711	
14.7049	
14.7018	
14.6561	
14.6378	
14.6683	
14.6606	
14.6576	
14.7186	
14.7247	
14.7308	
14.7324	
14.7903	
14.7705	
14.7293	
14.6698	
14.6927	
14.7064	
14.7064	
14.7034	
14.6347	
14.6362	
14.6805	
14.6576	
14.6606	
14.7247	
14.7278	
14.7324	
14.7308	
14.7781	
14.7583	
14.7293	
14.6851	
14.7141	
14.711	
14.7095	
14.7064	
14.6347	
14.6545	
14.679	
14.682	
14.6957	
14.7293	
14.7308	
14.7339	
14.7781	
14.7797	
14.7522	
14.7202	
14.7171	
14.7125	
14.7064	
14.7018	
14.6622	
14.6332	
14.6591	
14.6729	
14.6652	
14.7171	
14.7278	
14.7293	
14.7324	
14.8026	
14.7736	
14.7354	
14.6652	
14.6881	
14.7049	
14.7049	
14.7003	
14.6317	
14.6408	
14.6729	
14.6561	
14.6576	
14.7171	
14.7263	
14.7293	
14.7308	
14.7797	
14.743	
14.7171	
14.6927	
14.7156	
14.7049	
14.7003	
14.6988	
14.6332	
14.6515	
14.6744	
14.6851	
14.7064	
14.7232	
14.7247	
14.7278	
14.7659	
14.7812	
14.7598	
14.6805	
14.6942	
14.7049	
14.7003	
14.6988	
14.6637	
14.6317	
14.6561	
14.6637	
14.6576	
14.7095	
14.7217	
14.7247	
14.7247	
14.7781	
14.7598	
14.7263	
14.6866	
14.6683	
14.7003	
14.7003	
14.6942	
14.6378	
14.6317	
14.6774	
14.6591	
14.6698	
14.7171	
14.7202	
14.7232	
14.7247	
14.7873	
14.743	
14.7171	
14.6957	
14.7034	
14.6988	
14.6942	
14.6957	
14.6225	
14.6393	
14.6591	
14.682	
14.7064	
14.711	
14.7156	
14.7171	
14.7568	
14.7629	
14.743	
14.6896	
14.6927	
14.7003	
14.6912	
14.6896	
14.6683	
14.6255	
14.6439	
14.6423	
14.6408	
14.7034	
14.7171	
14.7171	
14.7217	
14.7766	
14.7644	
14.7156	
14.682	
14.6866	
14.6988	
14.7003	
14.6957	
14.6271	
14.6271	
14.6561	
14.65	
14.6423	
14.7064	
14.7171	
14.7217	
14.7202	
14.772	
14.7461	
14.7202	
14.7034	
14.7018	
14.6973	
14.6957	
14.6942	
14.6194	
14.6378	
14.6622	
14.6667	
14.6896	
14.7125	
14.7141	
14.7171	
14.7491	
14.7675	
14.743	
14.6729	
14.6942	
14.6957	
14.6912	
14.6881	
14.6713	
14.621	
14.6439	
14.6469	
14.6423	
14.7034	
14.711	
14.7171	
14.7141	
14.7598	
14.7537	
14.7247	
14.6774	
14.6698	
14.6896	
14.6881	
14.6896	
14.621	
14.6255	
14.6683	
14.6439	
14.6576	
14.7064	
14.7156	
14.7141	
14.7171	
14.7659	
14.74	
14.6942	
14.6698	
14.6973	
14.6912	
14.6866	
14.6866	
14.6194	
14.6347	
14.6667	
14.6774	
14.6957	
14.7095	
14.7125	
14.7125	
14.7507	
14.7659	
14.743	
14.6713	
14.6729	
14.6973	
14.6881	
14.6866	
14.6362	
14.624	
14.6576	
14.6378	
14.6439	
14.6988	
14.711	
14.711	
14.7125	
14.7583	
14.7491	
14.7202	
14.6622	
14.6637	
14.6896	
14.6896	
14.6866	
14.624	
14.621	
14.6652	
14.6347	
14.6423	
14.7034	
14.7125	
14.7171	
14.7186	
14.7614	
14.743	
14.7064	
14.6774	
14.6957	
14.6942	
14.6851	
14.6896	
14.6164	
14.6347	
14.6637	
14.6606	
14.682	
14.711	
14.7156	
14.7156	
14.7537	
14.7614	
14.7324	
14.7095	
14.6942	
14.6957	
14.6881	
14.6881	
14.6866	
14.621	
14.6423	
14.6515	
14.6515	
14.7034	
14.7156	
14.7141	
14.7171	
14.7705	
14.7537	
14.7186	
14.6835	
14.682	
14.6942	
14.6896	
14.6896	
14.624	
14.624	
14.6576	
14.6484	
14.65	
14.711	
14.7156	
14.7202	
14.7186	
14.7659	
14.74	
14.6988	
14.679	
14.6988	
14.6973	
14.6927	
14.6927	
14.6225	
14.6362	
14.6683	
14.6774	
14.6713	
14.7156	
14.7186	
14.7186	
14.7583	
14.7659	
14.7446	
14.7003	
14.6973	
14.7034	
14.6988	
14.6957	
14.6957	
14.6332	
14.653	
14.6698	
14.6683	
14.7095	
14.7202	
14.7247	
14.7247	
14.7736	
14.7705	
14.7263	
14.6744	
14.6896	
14.7018	
14.6973	
14.6957	
14.6317	
14.6301	
14.6744	
14.6805	
14.6912	
14.711	
14.7202	
14.7232	
14.7247	
14.7675	
14.7339	
14.6912	
14.6667	
14.7034	
14.6973	
14.6957	
14.6942	
14.6225	
14.6332	
14.6774	
14.6805	
14.6896	
14.7156	
14.7202	
14.7232	
14.7552	
14.7781	
14.7369	
14.711	
14.6988	
14.7049	
14.7018	
14.6942	
14.6957	
14.6317	
14.6545	
14.6683	
14.6698	
14.7125	
14.7202	
14.7247	
14.7263	
14.7766	
14.7705	
14.7278	
14.7003	
14.6927	
14.7034	
14.7018	
14.6988	
14.6347	
14.6393	
14.6622	
14.6606	
14.6591	
14.7186	
14.7217	
14.7247	
14.7263	
14.772	
14.7522	
14.7293	
14.7064	
14.7049	
14.7034	
14.6942	
14.6942	
14.624	
14.6332	
14.6729	
14.6683	
14.6729	
14.7171	
14.7202	
14.7247	
14.7491	
14.7812	
14.743	
14.6896	
14.7034	
14.7049	
14.7018	
14.6942	
14.6957	
14.6301	
14.6545	
14.65	
14.6484	
14.7064	
14.7186	
14.7202	
14.7339	
14.7751	
14.7659	
14.7308	
14.682	
14.6866	
14.6988	
14.6988	
14.6927	
14.6301	
14.6286	
14.6606	
14.6469	
14.6561	
14.7156	
14.7202	
14.7202	
14.7232	
14.7644	
14.7507	
14.7049	
14.6942	
14.7034	
14.6973	
14.6927	
14.6912	
14.6179	
14.6332	
14.6713	
14.6851	
14.6881	
14.7141	
14.7156	
14.7186	
14.74	
14.772	
14.74	
14.6744	
14.6805	
14.7018	
14.6942	
14.6942	
14.6912	
14.6255	
14.65	
14.6591	
14.6591	
14.7049	
14.7171	
14.7171	
14.7202	
14.7736	
14.7705	
14.7293	
14.6667	
14.6729	
14.6988	
14.6988	
14.6957	
14.6332	
14.6286	
14.6545	
14.6622	
14.6637	
14.711	
14.7202	
14.7232	
14.7232	
14.7781	
14.7507	
14.7156	
14.6744	
14.7018	
14.6927	
14.6927	
14.6912	
14.621	
14.6301	
14.6713	
14.6683	
14.6729	
14.711	
14.7156	
14.7156	
14.7293	
14.7629	
14.7476	
14.6744	
14.6896	
14.6988	
14.6912	
14.6866	
14.6866	
14.6194	
14.6439	
14.6362	
14.65	
14.6988	
14.7125	
14.7156	
14.7171	
14.7659	
14.7583	
14.7232	
14.6835	
14.6896	
14.6957	
14.6912	
14.6942	
14.624	
14.624	
14.6484	
14.6393	
14.6469	
14.7049	
14.711	
14.7125	
14.7141	
14.7629	
14.7369	
14.7064	
14.6774	
14.6927	
14.6927	
14.6866	
14.6866	
14.6118	
14.624	
14.6637	
14.6683	
14.6667	
14.7003	
14.7064	
14.7049	
14.7202	
14.7568	
14.7354	
14.679	
14.679	
14.6927	
14.6851	
14.682	
14.679	
14.6179	
14.6332	
14.6484	
14.6469	
14.6927	
14.7034	
14.7095	
14.711	
14.7598	
14.7537	
14.7171	
14.6729	
14.6744	
14.6896	
14.6851	
14.682	
14.621	
14.621	
14.6606	
14.6515	
14.6469	
14.6973	
14.7034	
14.7095	
14.7125	
14.7552	
14.7415	
14.6927	
14.6713	
14.6912	
14.6866	
14.682	
14.6835	
14.6088	
14.6194	
14.6667	
14.6667	
14.6805	
14.6988	
14.7034	
14.7095	
14.7171	
14.7507	
14.7217	
14.6973	
14.679	
14.6912	
14.6851	
14.6835	
14.6805	
14.621	
14.6317	
14.65	
14.6545	
14.6942	
14.7034	
14.7095	
14.7095	
14.7583	
14.7446	
14.7125	
14.6835	
14.6805	
14.6866	
14.6851	
14.6835	
14.6179	
14.6133	
14.6606	
14.6439	
14.6515	
14.6942	
14.6973	
14.7049	
14.7049	
14.7537	
14.7324	
14.711	
14.6713	
14.6881	
14.6835	
14.679	
14.6774	
14.6103	
14.6072	
14.6606	
14.6469	
14.6423	
14.6957	
14.7003	
14.7003	
14.711	
14.7552	
14.7095	
14.6988	
14.6881	
14.6881	
14.6805	
14.6744	
14.6774	
14.6103	
14.6347	
14.6439	
14.6332	
14.6896	
14.7003	
14.7003	
14.7034	
14.7507	
14.7522	
14.7125	
14.679	
14.679	
14.6835	
14.679	
14.6744	
14.6179	
14.6118	
14.6576	
14.6484	
14.6515	
14.6896	
14.6973	
14.7003	
14.7064	
14.7537	
14.7339	
14.6942	
14.679	
14.6896	
14.6835	
14.6744	
14.6805	
14.6042	
14.6164	
14.6545	
14.6652	
14.6729	
14.6973	
14.7018	
14.7018	
14.7095	
14.7507	
14.7232	
14.6667	
14.6729	
14.6866	
14.6805	
14.6729	
14.679	
14.6088	
14.6255	
14.6347	
14.6408	
14.6881	
14.6973	
14.6988	
14.7003	
14.7522	
14.7476	
14.7232	
14.65	
14.6729	
14.6835	
14.682	
14.6744	
14.6072	
14.6179	
14.6515	
14.6362	
14.6408	
14.6912	
14.6957	
14.7003	
14.7003	
14.7491	
14.7308	
14.6988	
14.6835	
14.6881	
14.6805	
14.6744	
14.6774	
14.6072	
14.6057	
14.6576	
14.6545	
14.6652	
14.6927	
14.6973	
14.7003	
14.7049	
14.7491	
14.711	
14.6591	
14.682	
14.6866	
14.6805	
14.6713	
14.6729	
14.6027	
14.6225	
14.6545	
14.6378	
14.6912	
14.6973	
14.7003	
14.7018	
14.7491	
14.7552	
14.7125	
14.6744	
14.6805	
14.682	
14.679	
14.6729	
14.6133	
14.6133	
14.6515	
14.624	
14.6332	
14.6881	
14.6988	
14.7018	
14.7064	
14.7476	
14.7339	
14.7003	
14.6835	
14.6851	
14.679	
14.6744	
14.6729	
14.5996	
14.6088	
14.653	
14.6561	
14.6561	
14.6896	
14.6988	
14.7003	
14.7064	
14.7507	
14.7247	
14.6652	
14.6866	
14.6881	
14.6805	
14.6729	
14.6713	
14.6072	
14.6271	
14.6408	
14.6378	
14.6866	
14.6988	
14.6973	
14.7018	
14.7537	
14.7476	
14.711	
14.6561	
14.6729	
14.6774	
14.6744	
14.6713	
14.6088	
14.6072	
14.653	
14.6317	
14.6439	
14.6881	
14.6957	
14.7003	
14.6988	
14.7446	
14.7369	
14.6881	
14.6698	
14.6835	
14.6774	
14.6713	
14.6713	
14.5996	
14.6027	
14.6545	
14.6622	
14.6667	
14.6912	
14.6973	
14.7018	
14.7034	
14.7476	
14.7202	
14.6576	
14.6729	
14.6866	
14.682	
14.679	
14.6744	
14.6057	
14.6286	
14.6606	
14.6606	
14.6912	
14.7018	
14.7034	
14.7064	
14.7598	
14.7522	
14.711	
14.6835	
14.679	
14.6866	
14.682	
14.679	
14.6133	
14.6133	
14.6576	
14.6591	
14.6683	
14.6912	
14.6988	
14.7034	
14.7049	
14.7598	
14.7217	
14.711	
14.6912	
14.6881	
14.682	
14.679	
14.679	
14.6057	
14.6118	
14.6561	
14.6713	
14.6774	
14.6988	
14.6973	
14.7003	
14.7095	
14.7446	
14.7308	
14.6774	
14.6835	
14.6881	
14.6835	
14.6744	
14.6729	
14.6057	
14.6271	
14.6362	
14.6332	
14.6896	
14.6973	
14.7018	
14.7018	
14.7507	
14.7491	
14.711	
14.6851	
14.6866	
14.6881	
14.682	
14.6805	
14.6103	
14.6164	
14.6545	
14.6332	
14.6332	
14.6957	
14.7018	
14.7095	
14.7095	
14.7568	
14.7476	
14.711	
14.6942	
14.6896	
14.682	
14.682	
14.679	
14.6042	
14.6164	
14.6637	
14.6591	
14.6652	
14.6973	
14.7003	
14.7018	
14.7064	
14.7537	
14.7308	
14.6713	
14.6866	
14.6866	
14.682	
14.6744	
14.6805	
14.6118	
14.6286	
14.6439	
14.6317	
14.6896	
14.7003	
14.7034	
14.7049	
14.7568	
14.7583	
14.7217	
14.6591	
14.6835	
14.6896	
14.6835	
14.6805	
14.621	
14.6194	
14.6576	
14.6362	
14.6393	
14.6957	
14.7018	
14.7034	
14.7064	
14.7568	
14.7461	
14.6957	
14.682	
14.6881	
14.682	
14.679	
14.6805	
14.6103	
14.6179	
14.6606	
14.6667	
14.6698	
14.7003	
14.7018	
14.7095	
14.7125	
14.7507	
14.7186	
14.6667	
14.6729	
14.6896	
14.6835	
14.6744	
14.679	
14.6133	
14.6301	
14.6408	
14.6439	
14.6896	
14.6988	
14.7034	
14.7049	
14.7568	
14.7507	
14.7141	
14.6713	
14.679	
14.6835	
14.6805	
14.6774	
14.6164	
14.6179	
14.653	
14.6484	
14.65	
14.6927	
14.6973	
14.7034	
14.7003	
14.7491	
14.7369	
14.6957	
14.6851	
14.6851	
14.6835	
14.679	
14.6774	
14.6072	
14.6072	
14.6622	
14.6683	
14.6591	
14.6927	
14.6988	
14.6988	
14.7049	
14.7491	
14.7018	
14.6744	
14.6805	
14.6805	
14.6744	
14.6667	
14.6713	
14.5996	
14.621	
14.6332	
14.6332	
14.6881	
14.6988	
14.6973	
14.6988	
14.7491	
14.7507	
14.7202	
14.6729	
14.682	
14.682	
14.6744	
14.6713	
14.6072	
14.6103	
14.65	
14.6164	
14.6332	
14.6881	
14.7003	
14.7003	
14.6988	
14.7522	
14.7308	
14.6973	
14.6835	
14.679	
14.679	
14.6744	
14.6713	
14.5966	
14.6072	
14.6545	
14.6561	
14.6515	
14.6881	
14.6927	
14.6973	
14.6988	
14.7461	
14.6973	
14.6515	
14.6713	
14.6774	
14.6713	
14.6667	
14.6652	
14.6011	
14.6133	
14.6378	
14.6408	
14.6774	
14.6896	
14.6927	
14.6927	
14.7369	
14.7491	
14.7232	
14.6637	
14.6744	
14.6774	
14.6729	
14.6698	
14.6103	
14.6072	
14.6484	
14.6317	
14.6347	
14.6805	
14.6896	
14.6973	
14.6942	
14.7446	
14.7293	
14.6927	
14.6545	
14.6683	
14.6683	
14.6652	
14.6652	
14.592	
14.6027	
14.6469	
14.6545	
14.6591	
14.682	
14.6896	
14.6896	
14.6942	
14.7415	
14.6866	
14.6652	
14.6606	
14.6729	
14.6683	
14.6652	
14.6652	
14.5996	
14.6179	
14.624	
14.6332	
14.6774	
14.6851	
14.6896	
14.6912	
14.743	
14.743	
14.711	
14.6591	
14.6774	
14.6713	
14.6698	
14.6667	
14.6103	
14.6027	
14.6439	
14.6164	
14.6225	
14.6805	
14.6881	
14.6942	
14.6927	
14.7446	
14.7247	
14.6973	
14.6667	
14.6698	
14.6698	
14.6667	
14.6683	
14.5981	
14.6042	
14.6545	
14.6393	
14.6423	
14.6866	
14.6927	
14.6957	
14.7003	
14.7461	
14.6942	
14.6698	
14.682	
14.679	
14.6713	
14.6713	
14.6667	
14.6057	
14.624	
14.6286	
14.621	
14.6835	
14.6912	
14.6957	
14.6942	
14.743	
14.7446	
14.7171	
14.6576	
14.682	
14.6774	
14.6744	
14.6698	
14.6118	
14.6133	
14.6484	
14.6393	
14.6362	
14.6881	
14.6942	
14.7018	
14.7003	
14.7476	
14.7369	
14.6957	
14.6713	
14.6744	
14.679	
14.6729	
14.6774	
14.6042	
14.6088	
14.6561	
14.6606	
14.6637	
14.6896	
14.6973	
14.6988	
14.7064	
14.7491	
14.7034	
14.653	
14.6683	
14.6851	
14.6774	
14.6729	
14.6744	
14.6088	
14.6255	
14.6408	
14.6423	
14.6957	
14.6957	
14.7003	
14.7003	
14.7491	
14.7491	
14.7293	
14.6545	
14.6774	
14.682	
14.6805	
14.679	
14.621	
14.6179	
14.653	
14.6484	
14.6561	
14.6912	
14.6942	
14.7049	
14.7034	
14.7507	
14.7324	
14.6988	
14.6835	
14.679	
14.6835	
14.679	
14.6805	
14.6072	
14.6164	
14.6652	
14.6606	
14.6637	
14.6957	
14.7003	
14.7018	
14.7064	
14.7507	
14.7018	
14.682	
14.6713	
14.6881	
14.682	
14.682	
14.6805	
14.6103	
14.6332	
14.6683	
14.6393	
14.6973	
14.7003	
14.7034	
14.7034	
14.7583	
14.7537	
14.7324	
14.6713	
14.6927	
14.6912	
14.6866	
14.682	
14.624	
14.621	
14.6652	
14.6439	
14.6423	
14.6973	
14.7049	
14.7064	
14.7095	
14.7522	
14.7415	
14.7095	
14.6698	
14.6851	
14.6896	
14.6866	
14.6881	
14.6179	
14.6225	
14.6683	
14.6591	
14.6637	
14.7018	
14.7064	
14.711	
14.7156	
14.7552	
14.7125	
14.6881	
14.6927	
14.6973	
14.6881	
14.6851	
14.6866	
14.6271	
14.6408	
14.6545	
14.6408	
14.6973	
14.7034	
14.7049	
14.7034	
14.7537	
14.7583	
14.7324	
14.6622	
14.6866	
14.6912	
14.6866	
14.6835	
14.6271	
14.6271	
14.6591	
14.653	
14.6561	
14.6988	
14.711	
14.7125	
14.7171	
14.7568	
14.7476	
14.7095	
14.6942	
14.6896	
14.6957	
14.6896	
14.6912	
14.6271	
14.6286	
14.6698	
14.6744	
14.6881	
14.7095	
14.711	
14.7171	
14.7186	
14.7675	
14.7217	
14.7018	
14.6866	
14.7018	
14.6957	
14.6896	
14.7034	
14.6225	
14.6484	
14.6622	
14.6683	
14.6957	
14.7095	
14.711	
14.7125	
14.7583	
14.7522	
14.7278	
14.6896	
14.6957	
14.6927	
14.6896	
14.6896	
14.6271	
14.6332	
14.6667	
14.6606	
14.6622	
14.7018	
14.711	
14.7156	
14.7171	
14.7644	
14.7476	
14.7202	
14.6866	
14.6835	
14.6988	
14.6942	
14.6896	
14.6194	
14.6225	
14.6713	
14.6667	
14.6774	
14.7064	
14.711	
14.7156	
14.7202	
14.7583	
14.7263	
14.6851	
14.7018	
14.6988	
14.6927	
14.6896	
14.6896	
14.624	
14.6408	
14.6667	
14.6393	
14.6988	
14.711	
14.7156	
14.7156	
14.7629	
14.7827	
14.7446	
14.6881	
14.7003	
14.7003	
14.6957	
14.6912	
14.6347	
14.6332	
14.6683	
14.6423	
14.6515	
14.7049	
14.7141	
14.7186	
14.7186	
14.7675	
14.7491	
14.7171	
14.6866	
14.6835	
14.6957	
14.6942	
14.6942	
14.6225	
14.6317	
14.6713	
14.6774	
14.679	
14.711	
14.7141	
14.7171	
14.7186	
14.7659	
14.7354	
14.6774	
14.6866	
14.6973	
14.6957	
14.6957	
14.6912	
14.6301	
14.6484	
14.6713	
14.6652	
14.6912	
14.7141	
14.7156	
14.7171	
14.7644	
14.772	
14.7476	
14.6851	
14.6881	
14.7018	
14.6973	
14.6927	
14.6423	
14.6393	
14.6698	
14.6332	
14.6622	
14.7064	
14.7156	
14.7217	
14.7217	
14.772	
14.7522	
14.711	
14.6957	
14.6805	
14.7003	
14.6973	
14.6957	
14.6286	
14.6332	
14.6713	
14.6774	
14.6866	
14.7125	
14.7202	
14.7293	
14.7247	
14.7629	
14.7263	
14.6973	
14.7018	
14.7034	
14.6988	
14.6942	
14.6942	
14.6271	
14.6515	
14.653	
14.6484	
14.6973	
14.7186	
14.7217	
14.7217	
14.7644	
14.7705	
14.7415	
14.7003	
14.7049	
14.7018	
14.7003	
14.6957	
14.6545	
14.6317	
14.6652	
14.6484	
14.6515	
14.711	
14.7156	
14.7186	
14.7247	
14.7675	
14.7537	
14.7202	
14.6927	
14.6896	
14.7018	
14.6973	
14.6988	
14.6347	
14.6378	
14.6835	
14.6698	
14.6683	
14.7171	
14.7217	
14.7263	
14.7293	
14.7705	
14.7446	
14.7049	
14.7064	
14.7064	
14.7018	
14.6973	
14.6988	
14.6362	
14.6606	
14.6667	
14.6606	
14.6957	
14.7186	
14.7263	
14.7263	
14.7644	
14.7781	
14.7476	
14.6912	
14.7095	
14.7064	
14.7018	
14.6973	
14.6652	
14.6378	
14.6698	
14.682	
14.6713	
14.7186	
14.7247	
14.7263	
14.7308	
14.7751	
14.7598	
14.7217	
14.6896	
14.6805	
14.7095	
14.7049	
14.7034	
14.6408	
14.6408	
14.6835	
14.6942	
14.7034	
14.7247	
14.7278	
14.7354	
14.7354	
14.7781	
14.7522	
14.7186	
14.7064	
14.7156	
14.7125	
14.7064	
14.7049	
14.6378	
14.6576	
14.6912	
14.6683	
14.7049	
14.7293	
14.7339	
14.7308	
14.7797	
14.7812	
14.7598	
14.6835	
14.7064	
14.7186	
14.7125	
14.7049	
14.6698	
14.6484	
14.679	
14.6545	
14.6835	
14.7232	
14.7293	
14.7339	
14.7339	
14.7858	
14.7614	
14.7324	
14.7141	
14.679	
14.7125	
14.711	
14.7064	
14.6408	
14.6423	
14.6851	
14.6866	
14.6881	
14.7232	
14.7293	
14.7354	
14.7354	
14.7797	
14.7568	
14.7049	
14.7171	
14.7202	
14.7125	
14.7064	
14.7095	
14.6408	
14.6591	
14.6927	
14.6729	
14.7003	
14.7278	
14.7354	
14.7369	
14.7797	
14.7873	
14.7675	
14.6988	
14.7232	
14.7202	
14.7141	
14.7095	
14.6866	
14.65	
14.6713	
14.6652	
14.6652	
14.7263	
14.7324	
14.7339	
14.7369	
14.7827	
14.7675	
14.7308	
14.7141	
14.6957	
14.7156	
14.7156	
14.7125	
14.6484	
14.65	
14.6912	
14.6942	
14.6973	
14.7278	
14.7369	
14.7446	
14.74	
14.7858	
14.7614	
14.7003	
14.7171	
14.7247	
14.7186	
14.7156	
14.7156	
14.6484	
14.6683	
14.6881	
14.6652	
14.7018	
14.7354	
14.743	
14.7446	
14.7812	
14.7919	
14.772	
14.7018	
14.7141	
14.7217	
14.7171	
14.7141	
14.6912	
14.6515	
14.679	
14.682	
14.6896	
14.7278	
14.7339	
14.7415	
14.74	
14.7919	
14.7751	
14.7308	
14.7095	
14.6881	
14.7186	
14.7171	
14.7125	
14.6439	
14.6484	
14.6973	
14.7003	
14.7034	
14.7293	
14.7369	
14.74	
14.7446	
14.7934	
14.7751	
14.7049	
14.7049	
14.7202	
14.7141	
14.711	
14.7125	
14.6347	
14.6606	
14.6912	
14.6667	
14.6957	
14.7324	
14.74	
14.7354	
14.7842	
14.7858	
14.7644	
14.7095	
14.7095	
14.7217	
14.7156	
14.7095	
14.6927	
14.6484	
14.6774	
14.6774	
14.682	
14.7247	
14.7308	
14.74	
14.7369	
14.7888	
14.7705	
14.743	
14.7232	
14.7049	
14.7186	
14.7171	
14.7125	
14.6423	
14.6484	
14.6912	
14.6729	
14.6957	
14.7278	
14.7339	
14.74	
14.74	
14.7858	
14.772	
14.7247	
14.7232	
14.7232	
14.7171	
14.7141	
14.711	
14.6393	
14.6652	
14.6957	
14.6576	
14.6866	
14.7308	
14.7324	
14.7369	
14.7812	
14.7888	
14.7751	
14.6973	
14.7202	
14.7217	
14.7171	
14.711	
14.6851	
14.6515	
14.6713	
14.6667	
14.6774	
14.7263	
14.7324	
14.7369	
14.7415	
14.7949	
14.7736	
14.7293	
14.7141	
14.6927	
14.7171	
14.711	
14.7141	
14.6439	
14.6484	
14.6912	
14.7003	
14.7003	
14.7278	
14.74	
14.7415	
14.7415	
14.7919	
14.743	
14.7095	
14.7339	
14.7278	
14.7186	
14.7171	
14.7186	
14.6408	
14.6637	
14.6866	
14.6942	
14.7064	
14.7339	
14.74	
14.7446	
14.7873	
14.7964	
14.7766	
14.6988	
14.7156	
14.7263	
14.7217	
14.7202	
14.682	
14.6545	
14.6942	
14.6942	
14.6988	
14.7324	
14.7446	
14.7491	
14.7476	
14.8102	
14.7873	
14.7446	
14.7278	
14.7049	
14.7263	
14.7232	
14.7217	
14.6515	
14.653	
14.7018	
14.7049	
14.7125	
14.74	
14.743	
14.7476	
14.7476	
14.7934	
14.772	
14.7186	
14.7247	
14.7278	
14.7232	
14.7186	
14.7232	
14.6484	
14.6729	
14.7049	
14.6896	
14.7202	
14.7476	
14.7491	
14.7537	
14.7964	
14.798	
14.7812	
14.7202	
14.7217	
14.7324	
14.7263	
14.7232	
14.7141	
14.6561	
14.6881	
14.6774	
14.6667	
14.7415	
14.7507	
14.7522	
14.7491	
14.8041	
14.7903	
14.7537	
14.743	
14.7156	
14.7324	
14.7293	
14.7278	
14.6561	
14.6622	
14.711	
14.6988	
14.7064	
14.743	
14.7507	
14.7552	
14.7583	
14.8087	
14.7919	
14.7202	
14.7354	
14.7354	
14.7293	
14.7263	
14.7278	
14.65	
14.6667	
14.7034	
14.6881	
14.7095	
14.7446	
14.7507	
14.7537	
14.7949	
14.798	
14.7873	
14.7247	
14.7293	
14.7415	
14.7339	
14.7308	
14.7278	
14.6698	
14.6988	
14.6912	
14.6927	
14.7507	
14.7614	
14.7644	
14.7644	
14.8193	
14.8087	
14.7644	
14.7476	
14.7263	
14.7446	
14.7415	
14.7369	
14.6729	
14.6774	
14.7202	
14.7232	
14.7308	
14.7598	
14.7659	
14.7675	
14.772	
14.8178	
14.801	
14.7461	
14.7446	
14.7507	
14.7461	
14.743	
14.743	
14.6729	
14.6866	
14.7156	
14.7156	
14.7446	
14.7583	
14.7644	
14.7644	
14.8087	
14.8163	
14.798	
14.7415	
14.7324	
14.7507	
14.74	
14.7415	
14.74	
14.6729	
14.6988	
14.7156	
14.7156	
14.7537	
14.7629	
14.7644	
14.7659	
14.8102	
14.8071	
14.7629	
14.7476	
14.7171	
14.7461	
14.743	
14.7354	
14.6667	
14.6774	
14.7217	
14.7171	
14.7339	
14.7568	
14.7629	
14.7675	
14.7675	
14.8132	
14.7964	
14.7614	
14.7552	
14.7537	
14.7446	
14.743	
14.7461	
14.679	
14.6851	
14.7247	
14.7034	
14.7415	
14.7629	
14.7705	
14.772	
14.8132	
14.8148	
14.7934	
14.74	
14.7507	
14.7507	
14.7461	
14.7415	
14.7446	
14.6774	
14.7064	
14.6988	
14.7125	
14.7568	
14.7675	
14.7705	
14.7751	
14.8285	
14.8148	
14.7659	
14.7629	
14.7415	
14.7507	
14.7461	
14.7446	
14.682	
14.6774	
14.7217	
14.7202	
14.7125	
14.7598	
14.7705	
14.772	
14.7751	
14.827	
14.7873	
14.772	
14.7537	
14.7537	
14.7476	
14.7446	
14.7461	
14.6698	
14.6896	
14.7232	
14.7263	
14.7369	
14.7644	
14.7629	
14.7675	
14.8132	
14.8132	
14.7934	
14.7659	
14.7491	
14.7522	
14.7446	
14.743	
14.74	
14.6774	
14.7049	
14.7247	
14.7232	
14.7583	
14.7675	
14.7659	
14.7705	
14.8254	
14.8117	
14.7644	
14.7491	
14.7278	
14.7476	
14.7461	
14.743	
14.679	
14.6805	
14.7156	
14.7263	
14.7339	
14.7583	
14.7644	
14.7675	
14.7705	
14.8193	
14.7919	
14.7491	
14.7522	
14.7476	
14.7446	
14.743	
14.743	
14.6698	
14.6851	
14.7171	
14.7293	
14.74	
14.7598	
14.7614	
14.7659	
14.801	
14.8163	
14.7934	
14.7308	
14.7339	
14.7476	
14.743	
14.7369	
14.7339	
14.6698	
14.7064	
14.7278	
14.7324	
14.7507	
14.7583	
14.7629	
14.7629	
14.8178	
14.8102	
14.7736	
14.7171	
14.7186	
14.7446	
14.7354	
14.7354	
14.6698	
14.6667	
14.711	
14.7171	
14.7202	
14.7491	
14.7568	
14.7598	
14.7598	
14.8056	
14.7873	
14.7232	
14.7339	
14.7446	
14.7354	
14.7324	
14.7324	
14.6591	
14.6713	
14.7141	
14.6957	
14.7141	
14.7568	
14.7583	
14.7598	
14.7949	
14.8117	
14.7934	
14.7278	
14.7217	
14.7476	
14.7415	
14.7369	
14.74	
14.6729	
14.7064	
14.6896	
14.6881	
14.7507	
14.7629	
14.7644	
14.7675	
14.8239	
14.8087	
14.772	
14.7522	
14.7369	
14.7476	
14.7446	
14.743	
14.6713	
14.6774	
14.7247	
14.7156	
14.7186	
14.7537	
14.7614	
14.7644	
14.7659	
14.8148	
14.798	
14.7583	
14.7461	
14.7476	
14.7415	
14.7369	
14.7354	
14.6683	
14.6729	
14.7141	
14.7003	
14.7141	
14.7568	
14.7629	
14.7629	
14.7842	
14.8132	
14.7888	
14.711	
14.7247	
14.7476	
14.7415	
14.74	
14.7369	
14.6713	
14.6973	
14.6988	
14.6988	
14.7476	
14.7598	
14.7629	
14.7629	
14.8148	
14.8071	
14.7659	
14.7522	
14.7415	
14.743	
14.7354	
14.7339	
14.6652	
14.6729	
14.7156	
14.7217	
14.7278	
14.7522	
14.7552	
14.7629	
14.7629	
14.8132	
14.7888	
14.7308	
14.7263	
14.7461	
14.74	
14.74	
14.7339	
14.6637	
14.6683	
14.7202	
14.6881	
14.7171	
14.7568	
14.7583	
14.7614	
14.7873	
14.8148	
14.7934	
14.7232	
14.7034	
14.7446	
14.7369	
14.7354	
14.7415	
14.6713	
14.7034	
14.6927	
14.6988	
14.7446	
14.7629	
14.7644	
14.7675	
14.8178	
14.8117	
14.7675	
14.7537	
14.7354	
14.7446	
14.743	
14.7415	
14.6683	
14.6774	
14.7202	
14.7186	
14.7263	
14.7583	
14.7675	
14.7675	
14.7736	
14.8193	
14.7827	
14.7659	
14.7552	
14.7507	
14.7461	
14.7446	
14.7461	
14.6729	
14.682	
14.7263	
14.711	
14.7324	
14.7659	
14.7675	
14.7705	
14.7919	
14.8209	
14.8041	
14.7324	
14.7278	
14.7537	
14.7446	
14.743	
14.7415	
14.6774	
14.7049	
14.7018	
14.7049	
14.7537	
14.7675	
14.7736	
14.7705	
14.8254	
14.8163	
14.7736	
14.7278	
14.7446	
14.7507	
14.7461	
14.7446	
14.6805	
14.6805	
14.7247	
14.7217	
14.7278	
14.7614	
14.7675	
14.7675	
14.7751	
14.8224	
14.7949	
14.7415	
14.743	
14.7552	
14.7491	
14.7446	
14.7446	
14.679	
14.682	
14.7263	
14.7171	
14.7049	
14.7659	
14.7659	
14.7736	
14.7873	
14.8239	
14.8071	
14.7339	
14.7263	
14.7522	
14.7491	
14.7461	
14.7461	
14.6835	
14.7141	
14.7095	
14.7156	
14.7644	
14.7736	
14.7751	
14.7797	
14.8239	
14.8209	
14.7797	
14.7247	
14.7339	
14.7522	
14.7507	
14.7491	
14.6835	
14.6851	
14.7217	
14.7339	
14.7339	
14.7629	
14.7736	
14.7751	
14.7797	
14.8254	
14.8071	
14.772	
14.7522	
14.7583	
14.7537	
14.7507	
14.7461	
14.6713	
14.6866	
14.7247	
14.7186	
14.7354	
14.7675	
14.7705	
14.7751	
14.7873	
14.8178	
14.7964	
14.7491	
14.7308	
14.7537	
14.7491	
14.7476	
14.7415	
14.6835	
14.7034	
14.7003	
14.7125	
14.7552	
14.7705	
14.7736	
14.772	
14.827	
14.8224	
14.7827	
14.7552	
14.7461	
14.7522	
14.7491	
14.7461	
14.6774	
14.6805	
14.7263	
14.7064	
14.7339	
14.7552	
14.772	
14.7736	
14.7766	
14.8209	
14.8056	
14.7629	
14.7644	
14.7583	
14.7522	
14.7491	
14.7476	
14.6683	
14.6774	
14.7278	
14.711	
14.7095	
14.7629	
14.7659	
14.7659	
14.7842	
14.8178	
14.798	
14.7446	
14.7278	
14.7507	
14.7491	
14.74	
14.74	
14.6805	
14.7003	
14.7018	
14.6973	
14.7522	
14.7659	
14.7705	
14.7675	
14.8239	
14.8209	
14.7736	
14.7415	
14.7415	
14.7491	
14.7461	
14.7446	
14.6744	
14.6835	
14.7232	
14.7324	
14.7339	
14.7614	
14.7659	
14.7751	
14.7751	
14.8209	
14.798	
14.7293	
14.7446	
14.7568	
14.7507	
14.7537	
14.7491	
14.679	
14.6835	
14.7247	
14.711	
14.7171	
14.7705	
14.7736	
14.7797	
14.7873	
14.8178	
14.8132	
14.7461	
14.7217	
14.7537	
14.7491	
14.7491	
14.7461	
14.6835	
14.7049	
14.7064	
14.7156	
14.7537	
14.772	
14.7736	
14.7751	
14.8254	
14.8209	
14.7812	
14.7537	
14.7446	
14.7537	
14.7522	
14.7476	
14.682	
14.6835	
14.7278	
14.7339	
14.7324	
14.7675	
14.7751	
14.7751	
14.7812	
14.8254	
14.8102	
14.7446	
14.7522	
14.7598	
14.7522	
14.7507	
14.7476	
14.6698	
14.6835	
14.7263	
14.7171	
14.7064	
14.7629	
14.7705	
14.7675	
14.7842	
14.8178	
14.7919	
14.7446	
14.7278	
14.7568	
14.7491	
14.7461	
14.7461	
14.6805	
14.7018	
14.7049	
14.7141	
14.7598	
14.7736	
14.7751	
14.7812	
14.827	
14.8285	
14.7858	
14.772	
14.7552	
14.7568	
14.7537	
14.7522	
14.6835	
14.6896	
14.7339	
14.7278	
14.7324	
14.7736	
14.7736	
14.7781	
14.7812	
14.8285	
14.8132	
14.7537	
14.7552	
14.7552	
14.7507	
14.7461	
14.7461	
14.6667	
14.6774	
14.7247	
14.6942	
14.6912	
14.7629	
14.7705	
14.7675	
14.7812	
14.83	
14.798	
14.7369	
14.7202	
14.7598	
14.7507	
14.7461	
14.7446	
14.6835	
14.6957	
14.7003	
14.7034	
14.7598	
14.7705	
14.7736	
14.7736	
14.8239	
14.8224	
14.7797	
14.7446	
14.7415	
14.7537	
14.7461	
14.7461	
14.6744	
14.6805	
14.7202	
14.7339	
14.7324	
14.7598	
14.7705	
14.7766	
14.7766	
14.8285	
14.8102	
14.7537	
14.7339	
14.7568	
14.7507	
14.7491	
14.7446	
14.6698	
14.6835	
14.7217	
14.7308	
14.74	
14.7644	
14.7705	
14.772	
14.7827	
14.8209	
14.8026	
14.7324	
14.7141	
14.7552	
14.7491	
14.7461	
14.7415	
14.6774	
14.7141	
14.7125	
14.7156	
14.7614	
14.7659	
14.7736	
14.7751	
14.8178	
14.8209	
14.7812	
14.7476	
14.7507	
14.7522	
14.7522	
14.7491	
14.679	
14.6835	
14.7308	
14.7293	
14.7324	
14.7629	
14.7675	
14.7736	
14.7751	
14.8148	
14.8041	
14.7568	
14.7552	
14.7522	
14.7461	
14.7446	
14.7446	
14.6698	
14.6805	
14.7263	
14.6973	
14.7003	
14.7629	
14.7675	
14.7675	
14.7751	
14.8117	
14.7919	
14.7476	
14.7522	
14.7507	
14.7461	
14.7415	
14.7446	
14.679	
14.7049	
14.6942	
14.7003	
14.7583	
14.7644	
14.7659	
14.7705	
14.8193	
14.8163	
14.7797	
14.7522	
14.7491	
14.7507	
14.7476	
14.7446	
14.6774	
14.6805	
14.7217	
14.7217	
14.7217	
14.7598	
14.7675	
14.7705	
14.7705	
14.8239	
14.8026	
14.743	
14.7491	
14.7491	
14.7461	
14.743	
14.7446	
14.6683	
14.6805	
14.7293	
14.6942	
14.7171	
14.7629	
14.7644	
14.7705	
14.7751	
14.8193	
14.7949	
14.743	
14.7278	
14.7552	
14.7491	
14.7446	
14.7446	
14.6805	
14.6927	
14.7202	
14.7217	
14.7552	
14.7659	
14.7675	
14.7705	
14.8193	
14.8148	
14.7781	
14.7324	
14.7461	
14.7552	
14.7461	
14.7461	
14.6805	
14.6805	
14.7217	
14.7324	
14.74	
14.7644	
14.7659	
14.7736	
14.7766	
14.8224	
14.8071	
14.7507	
14.7522	
14.7568	
14.7507	
14.7461	
14.7461	
14.6744	
14.6866	
14.7278	
14.7369	
14.7476	
14.7659	
14.7705	
14.7736	
14.7781	
14.8239	
14.8071	
14.743	
14.7324	
14.7568	
14.7491	
14.7446	
14.7476	
14.6805	
14.7064	
14.7202	
14.7369	
14.7568	
14.7659	
14.772	
14.7705	
14.8285	
14.8224	
14.7842	
14.7552	
14.7491	
14.7522	
14.7507	
14.7476	
14.6805	
14.679	
14.7263	
14.7263	
14.7339	
14.7598	
14.7659	
14.7736	
14.7736	
14.8224	
14.801	
14.7522	
14.7537	
14.7522	
14.7507	
14.7461	
14.7461	
14.6683	
14.682	
14.7186	
14.6988	
14.7064	
14.7675	
14.7705	
14.7736	
14.7797	
14.8224	
14.7964	
14.7522	
14.74	
14.7598	
14.7537	
14.7476	
14.7476	
14.6774	
14.6973	
14.6988	
14.6988	
14.7614	
14.7705	
14.7736	
14.772	
14.827	
14.8163	
14.7858	
14.7629	
14.7522	
14.7537	
14.7507	
14.7476	
14.6851	
14.682	
14.7247	
14.7217	
14.7278	
14.7644	
14.7736	
14.7781	
14.7781	
14.8285	
14.8117	
14.7552	
14.7583	
14.7598	
14.7522	
14.7491	
14.7476	
14.6698	
14.6851	
14.7278	
14.7156	
14.7186	
14.7675	
14.7781	
14.7736	
14.7781	
14.8239	
14.8026	
14.7369	
14.7186	
14.7552	
14.7522	
14.7461	
14.7461	
14.682	
14.7125	
14.7064	
14.7171	
14.7583	
14.7705	
14.772	
14.7736	
14.8254	
14.8163	
14.7827	
14.7491	
14.7461	
14.7507	
14.7476	
14.7446	
14.682	
14.6805	
14.7156	
14.7354	
14.7308	
14.7552	
14.7675	
14.772	
14.7705	
14.8178	
14.8041	
14.7522	
14.7369	
14.7491	
14.7461	
14.743	
14.7446	
14.6667	
14.6851	
14.7263	
14.711	
14.7156	
14.7629	
14.7659	
14.772	
14.772	
14.8193	
14.801	
14.711	
14.7293	
14.7537	
14.7476	
14.74	
14.743	
14.6713	
14.6896	
14.7095	
14.7034	
14.7552	
14.7644	
14.7705	
14.772	
14.8254	
14.8178	
14.7827	
14.7522	
14.7507	
14.7507	
14.7461	
14.743	
14.682	
14.679	
14.7186	
14.7217	
14.7263	
14.7568	
14.7644	
14.7705	
14.7736	
14.8193	
14.8056	
14.7446	
14.7522	
14.7522	
14.7446	
14.743	
14.7446	
14.6683	
14.6774	
14.7217	
14.6896	
14.6973	
14.7598	
14.7675	
14.7675	
14.7751	
14.8163	
14.7934	
14.7476	
14.7354	
14.7552	
14.7522	
14.7446	
14.7446	
14.6805	
14.6896	
14.7003	
14.6927	
14.7568	
14.7659	
14.7751	
14.772	
14.827	
14.8178	
14.7797	
14.7507	
14.7537	
14.7507	
14.7476	
14.7415	
14.6744	
14.6805	
14.7232	
14.7217	
14.7278	
14.7598	
14.7659	
14.7736	
14.772	
14.827	
14.8087	
14.7598	
14.7491	
14.7552	
14.7522	
14.7507	
14.7476	
14.6713	
14.679	
14.7232	
14.6896	
14.711	
14.7659	
14.7659	
14.772	
14.7781	
14.8239	
14.798	
14.7278	
14.7324	
14.7537	
14.7476	
14.7476	
14.7446	
14.6805	
14.6912	
14.7141	
14.7156	
14.7583	
14.7675	
14.7736	
14.7705	
14.8239	
14.8224	
14.7827	
14.74	
14.7446	
14.7507	
14.7476	
14.7446	
14.682	
14.6805	
14.7202	
14.7308	
14.7339	
14.7614	
14.7659	
14.7705	
14.7751	
14.8209	
14.8071	
14.7507	
14.7446	
14.7537	
14.7491	
14.7476	
14.7476	
14.6713	
14.679	
14.7202	
14.7064	
14.7034	
14.7644	
14.7675	
14.772	
14.7751	
14.8193	
14.7903	
14.7308	
14.7125	
14.7568	
14.7507	
14.7476	
14.7476	
14.6713	
14.6942	
14.7125	
14.7018	
14.7537	
14.7614	
14.772	
14.772	
14.8224	
14.8178	
14.7827	
14.7537	
14.7568	
14.7507	
14.7476	
14.7446	
14.682	
14.6835	
14.7247	
14.7141	
14.7141	
14.7598	
14.7644	
14.7705	
14.772	
14.8209	
14.8087	
14.743	
14.7583	
14.7522	
14.7476	
14.743	
14.743	
14.6683	
14.6774	
14.7202	
14.6973	
14.6973	
14.7583	
14.7644	
14.7675	
14.7736	
14.8178	
14.7873	
14.743	
14.7186	
14.7522	
14.7461	
14.7415	
14.7415	
14.6774	
14.6896	
14.6988	
14.6896	
14.7522	
14.7629	
14.7659	
14.7659	
14.8148	
14.8132	
14.7827	
14.7415	
14.7537	
14.7476	
14.7446	
14.7446	
14.6805	
14.6805	
14.7095	
14.7293	
14.7263	
14.7598	
14.7659	
14.7705	
14.7705	
14.8239	
14.8087	
14.7766	
14.7263	
14.7446	
14.7446	
14.74	
14.74	
14.6652	
14.6729	
14.7186	
14.6988	
14.6988	
14.7568	
14.7598	
14.7583	
14.7644	
14.8071	
14.7858	
14.7263	
14.7171	
14.7446	
14.74	
14.7339	
14.7369	
14.6683	
14.6851	
14.7064	
14.7049	
14.7522	
14.7583	
14.7598	
14.7629	
14.8102	
14.8148	
14.7766	
14.7202	
14.743	
14.7476	
14.7415	
14.74	
14.6881	
14.679	
14.7141	
14.7171	
14.7232	
14.7522	
14.7598	
14.7629	
14.7629	
14.8148	
14.7919	
14.7507	
14.7354	
14.7415	
14.7415	
14.74	
14.7415	
14.6606	
14.6774	
14.7156	
14.6957	
14.6927	
14.7552	
14.7583	
14.7659	
14.7705	
14.8087	
14.7842	
14.74	
14.7232	
14.7476	
14.7415	
14.7369	
14.7415	
14.6729	
14.6896	
14.7171	
14.6942	
14.7476	
14.7598	
14.7629	
14.7629	
14.8148	
14.8148	
14.7781	
14.7202	
14.7446	
14.7446	
14.74	
14.7339	
14.6774	
14.6744	
14.711	
14.7095	
14.7156	
14.7522	
14.7614	
14.7614	
14.7629	
14.8132	
14.7919	
14.7507	
14.7324	
14.7369	
14.74	
14.7339	
14.7339	
14.6606	
14.6713	
14.7171	
14.6973	
14.6988	
14.7522	
14.7568	
14.7598	
14.7629	
14.8132	
14.7842	
14.7141	
14.711	
14.743	
14.7339	
14.7278	
14.7324	
14.6637	
14.6835	
14.6988	
14.6896	
14.7415	
14.7537	
14.7583	
14.7583	
14.8132	
14.8102	
14.7827	
14.7156	
14.7369	
14.7415	
14.7339	
14.7293	
14.6774	
14.6683	
14.6957	
14.7156	
14.7186	
14.7507	
14.7568	
14.7598	
14.7614	
14.8102	
14.7964	
14.7415	
14.7354	
14.7308	
14.7415	
14.7339	
14.7339	
14.6622	
14.6744	
14.7141	
14.7018	
14.711	
14.7552	
14.7568	
14.7614	
14.7614	
14.8102	
14.7583	
14.7308	
14.7156	
14.7415	
14.7354	
14.7324	
14.7324	
14.6606	
14.6835	
14.6942	
14.6973	
14.7522	
14.7537	
14.7568	
14.7583	
14.8026	
14.8071	
14.7751	
14.7339	
14.74	
14.7415	
14.7308	
14.7293	
14.6744	
14.6622	
14.6942	
14.7018	
14.711	
14.74	
14.7522	
14.7537	
14.7568	
14.8102	
14.7934	
14.7491	
14.7476	
14.7263	
14.7324	
14.7293	
14.7278	
14.6576	
14.6652	
14.7034	
14.6805	
14.6957	
14.7537	
14.7583	
14.7583	
14.7629	
14.7964	
14.7598	
14.7446	
14.7308	
14.7369	
14.7293	
14.7278	
14.7278	
14.6606	
14.679	
14.6866	
14.6942	
14.74	
14.7522	
14.7552	
14.7583	
14.8117	
14.8071	
14.7781	
14.7522	
14.7415	
14.7369	
14.7339	
14.7293	
14.6744	
14.6622	
14.6942	
14.7171	
14.7171	
14.7446	
14.7537	
14.7598	
14.7583	
14.8132	
14.801	
14.7415	
14.7308	
14.7324	
14.7324	
14.7308	
14.7324	
14.6561	
14.6683	
14.7141	
14.6927	
14.6912	
14.7491	
14.7522	
14.7537	
14.7614	
14.8041	
14.772	
14.7293	
14.7095	
14.7446	
14.7324	
14.7293	
14.7308	
14.6667	
14.6851	
14.7003	
14.7003	
14.7507	
14.7568	
14.7598	
14.7598	
14.8102	
14.8132	
14.7781	
14.7202	
14.7324	
14.743	
14.7354	
14.7308	
14.679	
14.6667	
14.6942	
14.7186	
14.7186	
14.7476	
14.7552	
14.7598	
14.7583	
14.8117	
14.801	
14.743	
14.74	
14.7293	
14.7354	
14.7324	
14.7339	
14.6652	
14.6683	
14.7141	
14.7202	
14.7263	
14.7537	
14.7583	
14.7614	
14.7629	
14.8117	
14.7919	
14.7537	
14.7415	
14.74	
14.7324	
14.7278	
14.7263	
14.6591	
14.682	
14.7018	
14.6866	
14.7476	
14.7507	
14.7568	
14.7568	
14.8132	
14.8132	
14.7751	
14.7522	
14.74	
14.74	
14.7339	
14.7324	
14.6805	
14.6667	
14.7064	
14.7034	
14.7156	
14.7522	
14.7568	
14.7614	
14.7614	
14.8132	
14.7903	
14.7583	
14.7507	
14.7278	
14.7354	
14.7339	
14.7324	
14.6606	
14.6683	
14.7171	
14.6988	
14.7217	
14.7476	
14.7552	
14.7552	
14.7614	
14.8117	
14.7705	
14.7476	
14.7369	
14.743	
14.7354	
14.7278	
14.7308	
14.6667	
14.6866	
14.7156	
14.7125	
14.7491	
14.7507	
14.7568	
14.7568	
14.8102	
14.8026	
14.772	
14.7369	
14.7278	
14.7339	
14.7324	
14.7263	
14.6774	
14.6637	
14.6942	
14.7141	
14.7171	
14.7491	
14.7537	
14.7598	
14.7598	
14.8117	
14.801	
14.7369	
14.74	
14.7247	
14.7339	
14.7308	
14.7324	
14.6591	
14.6683	
14.7064	
14.6866	
14.7034	
14.7491	
14.7552	
14.7537	
14.7598	
14.8041	
14.7766	
14.711	
14.711	
14.7369	
14.7308	
14.7263	
14.7263	
14.6576	
14.6805	
14.6957	
14.7018	
14.7461	
14.7522	
14.7522	
14.7552	
14.8087	
14.8056	
14.7751	
14.7202	
14.7232	
14.7354	
14.7293	
14.7263	
14.6744	
14.6606	
14.6896	
14.7156	
14.7156	
14.7415	
14.7491	
14.7537	
14.7522	
14.8087	
14.7873	
14.7415	
14.7308	
14.7202	
14.7293	
14.7293	
14.7278	
14.65	
14.6591	
14.7018	
14.6729	
14.6927	
14.7446	
14.7491	
14.7507	
14.7537	
14.801	
14.7598	
14.7308	
14.7263	
14.7324	
14.7232	
14.7247	
14.7186	
14.653	
14.6744	
14.7018	
14.6851	
14.7339	
14.7476	
14.7507	
14.7522	
14.8041	
14.798	
14.772	
14.7308	
14.7354	
14.7339	
14.7308	
14.7202	
14.6729	
14.6652	
14.682	
14.6973	
14.6988	
14.743	
14.7507	
14.7507	
14.7522	
14.7949	
14.7827	
14.7354	
14.7354	
14.7141	
14.7263	
14.7217	
14.7171	
14.6469	
14.6576	
14.7018	
14.6866	
14.6805	
14.743	
14.7476	
14.7507	
14.7522	
14.7949	
14.7507	
14.7232	
14.7217	
14.7324	
14.7278	
14.7247	
14.7232	
14.6606	
14.6774	
14.6927	
14.6957	
14.7217	
14.743	
14.7461	
14.7446	
14.7934	
14.7934	
14.7644	
14.7263	
14.7217	
14.7263	
14.7247	
14.7202	
14.6713	
14.6561	
14.6713	
14.7049	
14.7049	
14.7324	
14.743	
14.7461	
14.7476	
14.798	
14.7812	
14.7491	
14.711	
14.7064	
14.7247	
14.7186	
14.7171	
14.6408	
14.653	
14.6896	
14.679	
14.6866	
14.7354	
14.7415	
14.7461	
14.7476	
14.7949	
14.7491	
14.7141	
14.6957	
14.7263	
14.7202	
14.7202	
14.7171	
14.6484	
14.6698	
14.6988	
14.6774	
14.7263	
14.7415	
14.7446	
14.7446	
14.7934	
14.7949	
14.7629	
14.7278	
14.711	
14.7263	
14.7247	
14.7171	
14.679	
14.653	
14.6683	
14.6957	
14.7018	
14.7339	
14.7415	
14.7461	
14.7507	
14.7949	
14.7736	
14.74	
14.7263	
14.7095	
14.7247	
14.7217	
14.7217	
14.6484	
14.6515	
14.6988	
14.6881	
14.6988	
14.7415	
14.7461	
14.7476	
14.7491	
14.7964	
14.772	
14.7415	
14.7263	
14.7247	
14.7232	
14.7171	
14.7156	
14.6515	
14.6683	
14.6988	
14.711	
14.7293	
14.7415	
14.7461	
14.7446	
14.801	
14.798	
14.7614	
14.7202	
14.7263	
14.7232	
14.7217	
14.7156	
14.6591	
14.6515	
14.682	
14.6973	
14.6973	
14.7308	
14.74	
14.743	
14.7446	
14.7949	
14.7766	
14.7247	
14.7308	
14.7064	
14.7202	
14.7156	
14.7156	
14.65	
14.6561	
14.6988	
14.679	
14.6881	
14.74	
14.7446	
14.7476	
14.7522	
14.7964	
14.7598	
14.7247	
14.7186	
14.7339	
14.7247	
14.7202	
14.7247	
14.6561	
14.6805	
14.6942	
14.6912	
14.7308	
14.7491	
14.7491	
14.7507	
14.801	
14.7964	
14.7736	
14.7354	
14.7217	
14.7324	
14.7278	
14.7247	
14.6744	
14.6591	
14.6835	
14.7095	
14.7064	
14.7339	
14.7446	
14.7461	
14.7522	
14.8041	
14.7781	
14.7476	
14.7308	
14.7095	
14.7263	
14.7263	
14.7247	
14.6545	
14.6622	
14.7034	
14.7003	
14.7018	
14.7415	
14.7507	
14.7537	
14.7552	
14.798	
14.7476	
14.7171	
14.7095	
14.7324	
14.7278	
14.7263	
14.7217	
14.6545	
14.6729	
14.6973	
14.7018	
14.7263	
14.743	
14.7476	
14.7491	
14.798	
14.798	
14.7614	
14.743	
14.7217	
14.7308	
14.7247	
14.7217	
14.6835	
14.6561	
14.6805	
14.7003	
14.7018	
14.7339	
14.7461	
14.7476	
14.7491	
14.8026	
14.7766	
14.7339	
14.7339	
14.7064	
14.7232	
14.7232	
14.7202	
14.65	
14.6561	
14.6942	
14.6912	
14.679	
14.7369	
14.7446	
14.7491	
14.7491	
14.7934	
14.7522	
14.7339	
14.7186	
14.7263	
14.7202	
14.7186	
14.7171	
14.65	
14.6729	
14.6851	
14.6744	
14.7217	
14.7369	
14.7446	
14.7476	
14.7949	
14.801	
14.7659	
14.7369	
14.7278	
14.7278	
14.7202	
14.7186	
14.6851	
14.6561	
14.6713	
14.6988	
14.6942	
14.7308	
14.7446	
14.7476	
14.7476	
14.8041	
14.7797	
14.7293	
14.7324	
14.7095	
14.7217	
14.7202	
14.7186	
14.6423	
14.6561	
14.6988	
14.6835	
14.6881	
14.7369	
14.7415	
14.7461	
14.7491	
14.7903	
14.7446	
14.7186	
14.6988	
14.7263	
14.7247	
14.7202	
14.7202	
14.65	
14.6652	
14.682	
14.6866	
14.7247	
14.74	
14.7446	
14.743	
14.7858	
14.7934	
14.772	
14.7034	
14.6866	
14.7263	
14.7186	
14.7141	
14.6851	
14.6545	
14.6713	
14.7049	
14.7095	
14.7293	
14.7369	
14.7415	
14.74	
14.7934	
14.7797	
14.7369	
14.6927	
14.6942	
14.7217	
14.7171	
14.7156	
14.6301	
14.6515	
14.6912	
14.682	
14.6881	
14.7324	
14.7369	
14.743	
14.7415	
14.7858	
14.74	
14.7003	
14.7018	
14.7263	
14.7202	
14.7171	
14.7156	
14.6469	
14.6774	
14.6851	
14.6835	
14.7232	
14.7369	
14.743	
14.7461	
14.7934	
14.7934	
14.7659	
14.7339	
14.7202	
14.7232	
14.7202	
14.7171	
14.6927	
14.65	
14.6667	
14.6851	
14.7018	
14.7293	
14.74	
14.743	
14.7476	
14.798	
14.7827	
14.7339	
14.7202	
14.7034	
14.7232	
14.7186	
14.7171	
14.6423	
14.6469	
14.6774	
14.6744	
14.6805	
14.7339	
14.74	
14.74	
14.7446	
14.7842	
14.743	
14.7202	
14.7095	
14.7247	
14.7186	
14.7125	
14.7156	
14.6515	
14.6713	
14.6896	
14.6713	
14.7202	
14.7369	
14.7369	
14.7446	
14.7919	
14.7934	
14.7659	
14.7324	
14.7186	
14.7263	
14.7186	
14.7156	
14.6973	
14.6515	
14.6667	
14.6973	
14.7018	
14.7247	
14.7324	
14.74	
14.7415	
14.801	
14.7766	
14.7293	
14.7232	
14.6988	
14.7202	
14.7141	
14.7095	
14.6332	
14.6423	
14.6896	
14.682	
14.679	
14.7293	
14.74	
14.74	
14.743	
14.7888	
14.7491	
14.6957	
14.6912	
14.7232	
14.7141	
14.7141	
14.7141	
14.6423	
14.6667	
14.682	
14.6835	
14.7034	
14.7293	
14.7339	
14.7339	
14.7842	
14.7888	
14.7583	
14.7202	
14.6988	
14.7186	
14.7156	
14.711	
14.7003	
14.6484	
14.6545	
14.6988	
14.7018	
14.7263	
14.74	
14.7415	
14.7446	
14.7949	
14.7781	
14.7278	
14.6957	
14.6973	
14.7095	
14.6988	
14.6957	
14.621	
14.624	
14.6576	
14.6393	
14.6393	
14.7003	
14.7095	
14.7171	
14.7232	
14.7705	
14.7232	
14.7049	
14.6988	
14.7247	
14.7156	
14.7156	
14.7202	
14.6439	
14.6713	
14.6912	
14.6744	
14.7049	
14.7354	
14.7415	
14.7446	
14.7873	
14.7858	
14.7659	
14.7339	
14.7247	
14.7247	
14.7217	
14.7156	
14.7003	
14.6469	
14.6606	
14.6805	
14.6866	
14.7156	
14.7247	
14.7278	
14.7308	
14.7903	
14.7766	
14.7217	
14.7034	
14.7049	
14.7217	
14.7202	
14.7186	
14.6378	
14.653	
14.6851	
14.6713	
14.6713	
14.7339	
14.743	
14.7491	
14.7507	
14.7934	
14.7476	
14.7171	
14.7049	
14.7263	
14.7202	
14.7171	
14.7202	
14.653	
14.6698	
14.6912	
14.6698	
14.7095	
14.7369	
14.74	
14.743	
14.7903	
14.7903	
14.7675	
14.7232	
14.7095	
14.7232	
14.7171	
14.7141	
14.7018	
14.6515	
14.6591	
14.6988	
14.7064	
14.7263	
14.7369	
14.7446	
14.7446	
14.798	
14.7766	
14.7461	
14.6957	
14.6988	
14.7186	
14.7186	
14.7171	
14.6393	
14.6545	
14.6896	
14.6774	
14.6866	
14.7354	
14.7415	
14.7461	
14.7446	
14.7781	
14.7247	
14.6896	
14.6713	
14.6729	
14.6515	
14.6439	
14.6317	
14.5615	
14.5966	
14.6347	
14.6423	
14.6667	
14.7202	
14.7354	
14.7461	
14.7964	
14.8026	
14.7781	
14.7476	
14.7263	
14.7461	
14.7324	
14.7278	
14.7171	
14.6561	
14.6774	
14.6973	
14.7095	
14.7339	
14.7461	
14.7507	
14.7507	
14.8071	
14.7858	
14.7415	
14.7247	
14.7141	
14.7232	
14.7171	
14.7156	
14.6393	
14.6545	
14.6912	
14.6729	
14.6851	
14.7461	
14.7507	
14.7491	
14.7522	
14.8026	
14.7415	
14.7232	
14.7217	
14.7263	
14.7232	
14.7141	
14.7049	
14.6347	
14.6561	
14.6881	
14.6561	
14.6912	
14.7293	
14.7369	
14.7415	
14.7888	
14.798	
14.7675	
14.7354	
14.7141	
14.7278	
14.7278	
14.7186	
14.7018	
14.65	
14.6591	
14.6912	
14.6912	
14.7263	
14.7339	
14.7415	
14.7369	
14.7873	
14.7675	
14.7247	
14.7018	
14.6912	
14.7049	
14.6912	
14.6805	
14.5981	
14.566	
14.5813	
14.563	
14.566	
14.621	
14.6332	
14.653	
14.682	
14.743	
14.7186	
14.6835	
14.6637	
14.6881	
14.6561	
14.6332	
14.6362	
14.5676	
14.5905	
14.6103	
14.6194	
14.6591	
14.711	
14.7324	
14.7552	
14.8193	
14.827	
14.8163	
14.7446	
14.7247	
14.7552	
14.7507	
14.743	
14.7278	
14.6652	
14.682	
14.7171	
14.7156	
14.743	
14.7568	
14.7629	
14.7614	
14.8117	
14.7934	
14.7659	
14.7125	
14.7308	
14.7522	
14.7537	
14.7537	
14.6667	
14.6805	
14.7141	
14.6957	
14.7003	
14.7522	
14.7614	
14.7629	
14.7629	
14.8102	
14.7614	
14.7263	
14.7064	
14.7369	
14.7308	
14.7278	
14.7278	
14.6561	
14.6805	
14.7018	
14.6896	
14.7034	
14.7446	
14.7446	
14.7491	
14.7934	
14.798	
14.7736	
14.74	
14.6927	
14.7293	
14.7232	
14.7156	
14.7141	
14.6561	
14.6667	
14.6912	
14.6881	
14.7293	
14.7369	
14.7415	
14.7446	
14.7949	
14.7766	
14.7263	
14.7278	
14.711	
14.7186	
14.7141	
14.7125	
14.6439	
14.6484	
14.6729	
14.6683	
14.6774	
14.7339	
14.74	
14.7446	
14.7476	
14.7873	
14.7537	
14.711	
14.6988	
14.7232	
14.7156	
14.7171	
14.7156	
14.6393	
14.6606	
14.6896	
14.6683	
14.7018	
14.7354	
14.7415	
14.743	
14.7842	
14.7888	
14.7598	
14.7171	
14.6912	
14.7232	
14.7156	
14.7141	
14.7125	
14.653	
14.6683	
14.6988	
14.6912	
14.711	
14.7156	
14.7202	
14.7156	
14.7675	
14.7552	
14.7247	
14.6896	
14.6851	
14.7034	
14.7049	
14.7064	
14.6378	
14.6469	
14.6866	
14.6851	
14.6912	
14.7339	
14.7369	
14.74	
14.743	
14.7934	
14.7766	
14.6942	
14.6927	
14.711	
14.6927	
14.6851	
14.6835	
14.6118	
14.6255	
14.65	
14.6408	
14.6851	
14.7217	
14.7263	
14.7308	
14.7812	
14.7873	
14.7415	
14.6866	
14.6606	
14.6744	
14.6515	
14.5981	
14.5706	
14.4638	
14.4684	
14.5004	
14.4943	
14.5279	
14.5554	
14.5767	
14.6118	
14.6851	
14.6957	
14.7064	
14.7049	
14.7202	
14.7369	
14.7507	
14.7736	
14.7095	
14.6927	
14.7247	
14.7186	
14.7018	
14.7491	
14.7537	
14.7507	
14.7354	
14.7751	
14.7476	
14.7064	
14.6713	
14.6912	
14.6545	
14.6271	
14.6378	
14.5737	
14.6133	
14.679	
14.6484	
14.6866	
14.7263	
14.7339	
14.7354	
14.7934	
14.8132	
14.7919	
14.772	
14.74	
14.772	
14.7537	
14.7537	
14.7507	
14.6835	
14.7034	
14.7171	
14.7186	
14.7629	
14.7659	
14.6942	
14.6072	
14.6255	
14.595	
14.5401	
14.5233	
14.5248	
14.5737	
14.5905	
14.6118	
14.5615	
14.6042	
14.6851	
14.6744	
14.7034	
14.7552	
14.7629	
14.7644	
14.7568	
14.8041	
14.7766	
14.7125	
14.6362	
14.6225	
14.5981	
14.5752	
14.5706	
14.4791	
14.4806	
14.5462	
14.5798	
14.6545	
14.7202	
14.7461	
14.7659	
14.8376	
14.8651	
14.8438	
14.801	
14.772	
14.8132	
14.8178	
14.8087	
14.801	
14.7278	
14.7293	
14.711	
14.624	
14.5493	
14.5111	
14.4989	
14.5172	
14.624	
14.6408	
14.6362	
14.621	
14.6362	
14.6851	
14.7141	
14.7339	
14.6744	
14.6957	
14.7705	
14.8087	
14.8102	
14.8346	
14.8026	
14.7598	
14.7324	
14.7537	
14.6713	
14.6133	
14.6225	
14.679	
14.6851	
14.7034	
14.7247	
14.6774	
14.7095	
14.74	
14.7354	
14.7476	
14.7964	
14.7919	
14.7873	
14.827	
14.8346	
14.8026	
14.7507	
14.7217	
14.7339	
14.7308	
14.7095	
14.7018	
14.6301	
14.6408	
14.6667	
14.6805	
14.7095	
14.7049	
14.6973	
14.6912	
14.743	
14.74	
14.6912	
14.6744	
14.6851	
14.7064	
14.7186	
14.7217	
14.6423	
14.6301	
14.6469	
14.621	
14.624	
14.6194	
14.5584	
14.5401	
14.5432	
14.563	
14.5279	
14.5355	
14.5645	
14.6271	
14.6698	
14.6927	
14.7324	
14.6515	
14.6286	
14.6103	
14.4989	
14.5096	
14.5859	
14.6347	
14.6667	
14.7415	
14.8193	
14.8483	
14.8529	
14.8651	
14.8682	
14.8743	
14.8376	
14.8056	
14.7186	
14.74	
14.7644	
14.7705	
14.7919	
14.7858	
14.7934	
14.801	
14.8483	
14.8102	
14.7491	
14.7308	
14.6927	
14.6927	
14.682	
14.6896	
14.592	
14.5844	
14.6408	
14.6362	
14.6484	
14.6851	
14.6622	
14.6637	
14.6423	
14.6591	
14.6179	
14.5874	
14.5966	
14.6439	
14.6637	
14.6942	
14.7308	
14.6606	
14.6423	
14.6606	
14.6912	
14.7247	
14.7339	
14.6057	
14.5142	
14.5325	
14.5203	
14.5035	
14.5096	
14.5493	
14.6332	
14.6942	
14.7491	
14.7568	
14.8041	
14.8773	
14.8987	
14.8911	
14.9017	
14.8651	
14.8453	
14.8254	
14.8727	
14.8041	
14.7614	
14.7064	
14.682	
14.6423	
14.6255	
14.6118	
14.5432	
14.5111	
14.5401	
14.5203	
14.4882	
14.4363	
14.3524	
14.3494	
14.3814	
14.4775	
14.4882	
14.5172	
14.5599	
14.6179	
14.679	
14.7446	
14.8071	
14.7903	
14.8102	
14.8758	
14.8743	
14.8941	
14.8819	
14.8651	
14.8712	
14.9124	
14.9292	
14.8788	
14.8361	
14.7858	
14.8056	
14.7873	
14.7705	
14.7598	
14.6805	
14.6301	
14.6439	
14.653	
14.679	
14.6988	
14.7247	
14.7369	
14.7858	
14.7598	
14.7217	
14.682	
14.6698	
14.682	
14.6988	
14.7049	
14.6484	
14.6698	
14.7125	
14.7034	
14.7202	
14.7705	
14.772	
14.7781	
14.7797	
14.83	
14.7644	
14.7125	
14.6912	
14.6896	
14.6362	
14.5905	
14.5767	
14.5187	
14.5554	
14.6194	
14.6271	
14.6927	
14.7736	
14.7934	
14.7964	
14.8422	
14.8468	
14.8102	
14.7644	
14.7476	
14.7675	
14.7568	
14.7415	
14.7308	
14.6652	
14.6881	
14.7034	
14.6942	
14.7324	
14.74	
14.7369	
14.74	
14.7812	
14.7614	
14.7202	
14.7125	
14.6988	
14.7064	
14.7034	
14.7034	
14.6423	
14.6332	
14.6713	
14.6439	
14.6393	
14.6973	
14.6973	
14.7034	
14.7125	
14.7629	
14.7125	
14.6912	
14.6988	
14.7156	
14.7232	
14.7232	
14.7171	
14.6545	
14.679	
14.7156	
14.6912	
14.7141	
14.743	
14.743	
14.743	
14.7812	
14.7797	
14.7583	
14.7263	
14.7125	
14.7141	
14.7125	
14.7125	
14.7064	
14.6255	
14.6103	
14.5996	
14.5889	
14.6088	
14.5996	
14.6027	
14.6133	
14.6896	
14.711	
14.6988	
14.6927	
14.7186	
14.74	
14.7552	
14.7705	
14.7049	
14.7202	
14.7568	
14.7293	
14.7217	
14.7751	
14.7766	
14.7659	
14.7659	
14.8132	
14.7797	
14.7018	
14.7018	
14.7354	
14.7247	
14.7125	
14.7064	
14.6332	
14.6057	
14.5691	
14.5294	
14.5279	
14.5401	
14.5599	
14.5554	
14.5752	
14.6057	
14.6103	
14.6057	
14.6118	
14.6881	
14.711	
14.7446	
14.7659	
14.7461	
14.7659	
14.7583	
14.7263	
14.74	
14.7308	
14.7263	
14.7354	
14.7964	
14.8026	
14.7675	
14.7476	
14.7507	
14.7507	
14.7446	
14.7552	
14.6927	
14.6774	
14.6988	
14.6912	
14.6774	
14.7324	
14.7354	
14.74	
14.7339	
14.7797	
14.7308	
14.6988	
14.6774	
14.7049	
14.6973	
14.6927	
14.6927	
14.624	
14.6271	
14.6667	
14.6378	
14.653	
14.6957	
14.6851	
14.6805	
14.7095	
14.7202	
14.6667	
14.6271	
14.5996	
14.6118	
14.6118	
14.6072	
14.5813	
14.5081	
14.5432	
14.5874	
14.6027	
14.6637	
14.7018	
14.711	
14.6957	
14.7522	
14.7614	
14.7217	
14.7049	
14.7018	
14.6881	
14.653	
14.5996	
14.4409	
14.4012	
14.4241	
14.4302	
14.4623	
14.5599	
14.5889	
14.6393	
14.7034	
14.8041	
14.8041	
14.7644	
14.772	
14.6973	
14.595	
14.473	
14.4073	
14.36	
14.4089	
14.4897	
14.5142	
14.5905	
14.6927	
14.7461	
14.7751	
14.83	
14.8788	
14.8392	
14.772	
14.7507	
14.7339	
14.7369	
14.7552	
14.7278	
14.682	
14.7324	
14.7491	
14.7552	
14.7614	
14.7644	
14.7552	
14.743	
14.7629	
14.7522	
14.7125	
14.6851	
14.679	
14.6729	
14.682	
14.679	
14.5981	
14.5599	
14.5844	
14.5767	
14.5782	
14.6484	
14.6698	
14.6973	
14.711	
14.7568	
14.7018	
14.6637	
14.6713	
14.6942	
14.679	
14.6652	
14.6484	
14.5676	
14.5813	
14.6317	
14.6423	
14.6729	
14.7186	
14.7415	
14.7491	
14.7919	
14.8041	
14.7781	
14.7263	
14.6835	
14.7095	
14.6973	
14.6927	
14.6881	
14.6255	
14.6469	
14.6561	
14.6591	
14.6881	
14.6973	
14.7003	
14.6927	
14.7232	
14.7049	
14.6606	
14.6332	
14.6286	
14.621	
14.5691	
14.5325	
14.4684	
14.4623	
14.5157	
14.5355	
14.5721	
14.6439	
14.6805	
14.7064	
14.7278	
14.801	
14.7797	
14.7308	
14.6545	
14.6667	
14.6347	
14.6042	
14.5767	
14.4318	
14.4363	
14.4928	
14.5081	
14.537	
14.6194	
14.6591	
14.7095	
14.7675	
14.7675	
14.7507	
14.6988	
14.6576	
14.6896	
14.679	
14.6713	
14.6866	
14.6393	
14.6667	
14.6988	
14.7202	
14.7491	
14.7293	
14.7217	
14.7141	
14.7629	
14.7751	
14.7308	
14.7003	
14.6988	
14.7018	
14.7003	
14.7064	
14.6515	
14.653	
14.6988	
14.711	
14.6851	
14.7537	
14.7705	
14.772	
14.7598	
14.8087	
14.7522	
14.7247	
14.7064	
14.7156	
14.7049	
14.7003	
14.6973	
14.624	
14.6332	
14.6652	
14.6591	
14.6606	
14.7018	
14.6973	
14.6805	
14.711	
14.7308	
14.6957	
14.6652	
14.6576	
14.6667	
14.6744	
14.6774	
14.6805	
14.624	
14.6423	
14.6774	
14.6896	
14.6988	
14.7095	
14.7247	
14.7278	
14.7797	
14.7705	
14.7186	
14.6835	
14.6667	
14.6301	
14.6042	
14.6057	
14.5432	
14.537	
14.5966	
14.5996	
14.5935	
14.621	
14.5859	
14.5538	
14.5416	
14.5966	
14.5447	
14.4501	
14.447	
14.505	
14.5416	
14.5889	
14.6591	
14.6057	
14.6484	
14.711	
14.6881	
14.7049	
14.7751	
14.7568	
14.7461	
14.772	
14.8239	
14.8148	
14.7766	
14.743	
14.7675	
14.7858	
14.7842	
14.7583	
14.6698	
14.6652	
14.6713	
14.6637	
14.6881	
14.7064	
14.7141	
14.7186	
14.7751	
14.7751	
14.743	
14.7354	
14.7446	
14.7415	
14.74	
14.7232	
14.6423	
14.6301	
14.6423	
14.6133	
14.6347	
14.6881	
14.6973	
14.6805	
14.5874	
14.6225	
14.6072	
14.5645	
14.5782	
14.6362	
14.653	
14.6805	
14.7141	
14.6637	
14.682	
14.7293	
14.6942	
14.7034	
14.7354	
14.7522	
14.7552	
14.772	
14.7934	
14.7507	
14.7232	
14.7003	
14.7064	
14.6896	
14.6423	
14.6179	
14.5355	
14.5462	
14.5691	
14.5645	
14.6027	
14.6286	
14.6545	
14.6713	
14.7247	
14.7186	
14.6835	
14.6484	
14.6301	
14.6347	
14.6362	
14.6591	
14.6271	
14.6484	
14.7247	
14.7171	
14.7217	
14.7766	
14.7827	
14.7858	
14.7644	
14.8041	
14.7827	
14.7156	
14.7049	
14.7263	
14.7125	
14.7018	
14.6988	
14.6271	
14.6332	
14.6576	
14.6393	
14.6408	
14.6866	
14.6835	
14.6713	
14.682	
14.7141	
14.6774	
14.5615	
14.5477	
14.5767	
14.5782	
14.5782	
14.5844	
14.5355	
14.5554	
14.5676	
14.5767	
14.6118	
14.65	
14.682	
14.7095	
14.7629	
14.7827	
14.7446	
14.6744	
14.7171	
14.7522	
14.7537	
14.7476	
14.682	
14.6866	
14.7278	
14.7232	
14.7156	
14.743	
14.7461	
14.7446	
14.7232	
14.7644	
14.7186	
14.6164	
14.5615	
14.5798	
14.5737	
14.5813	
14.5966	
14.5416	
14.5706	
14.6378	
14.653	
14.6927	
14.7491	
14.7522	
14.7583	
14.7766	
14.8026	
14.7644	
14.7339	
14.6713	
14.6881	
14.6698	
14.6774	
14.6774	
14.6103	
14.6332	
14.653	
14.6744	
14.7156	
14.7278	
14.7354	
14.7232	
14.7705	
14.7537	
14.7202	
14.711	
14.6988	
14.6988	
14.6927	
14.6667	
14.5767	
14.5676	
14.5844	
14.5599	
14.5447	
14.6133	
14.6362	
14.6576	
14.6774	
14.7415	
14.74	
14.6988	
14.6683	
14.6774	
14.6652	
14.6347	
14.6255	
14.5493	
14.563	
14.6057	
14.5767	
14.621	
14.6851	
14.7049	
14.7263	
14.7507	
14.801	
14.7736	
14.7476	
14.7232	
14.7232	
14.7049	
14.7049	
14.6957	
14.6057	
14.6347	
14.6591	
14.6622	
14.6866	
14.7003	
14.7018	
14.7034	
14.7476	
14.7446	
14.6881	
14.6591	
14.6606	
14.6713	
14.6622	
14.6637	
14.5905	
14.5905	
14.6118	
14.5981	
14.6011	
14.6606	
14.6606	
14.6545	
14.6576	
14.7156	
14.6805	
14.6423	
14.6408	
14.6667	
14.6957	
14.7003	
14.6957	
14.6317	
14.6332	
14.6729	
14.6515	
14.6637	
14.7141	
14.6927	
14.6851	
14.7034	
14.7308	
14.7049	
14.6652	
14.6606	
14.682	
14.6729	
14.6713	
14.679	
14.6179	
14.6484	
14.6652	
14.6667	
14.6912	
14.6973	
14.6973	
14.6957	
14.743	
14.7446	
14.7125	
14.6652	
14.6652	
14.6729	
14.6698	
14.6713	
14.6042	
14.6027	
14.6133	
14.5874	
14.5996	
14.6332	
14.6317	
14.6347	
14.6439	
14.6576	
14.566	
14.4943	
14.4775	
14.5111	
14.5279	
14.566	
14.5981	
14.5599	
14.5752	
14.6469	
14.6591	
14.6973	
14.7507	
14.7751	
14.7629	
14.7797	
14.8071	
14.7736	
14.7263	
14.6957	
14.7125	
14.6896	
14.6744	
14.6744	
14.6133	
14.6255	
14.6317	
14.6408	
14.6851	
14.6957	
14.7095	
14.711	
14.7552	
14.7522	
14.7049	
14.6851	
14.6683	
14.6774	
14.6744	
14.6698	
14.6057	
14.6072	
14.6439	
14.6057	
14.5905	
14.653	
14.65	
14.624	
14.6225	
14.65	
14.6423	
14.6286	
14.6378	
14.6591	
14.6729	
14.6896	
14.6957	
14.6317	
14.6423	
14.6866	
14.6698	
14.6774	
14.7247	
14.7125	
14.7003	
14.7202	
14.7522	
14.7186	
14.6912	
14.6698	
14.6652	
14.6606	
14.6515	
14.653	
14.5874	
14.595	
14.6271	
14.6164	
14.6378	
14.6255	
14.6072	
14.5981	
14.6378	
14.6545	
14.6164	
14.5996	
14.6179	
14.6271	
14.6378	
14.6561	
14.6103	
14.6286	
14.6729	
14.6576	
14.679	
14.7156	
14.7141	
14.7018	
14.6866	
14.7308	
14.6957	
14.6103	
14.5493	
14.534	
14.5111	
14.5157	
14.5386	
14.476	
14.4882	
14.5538	
14.5798	
14.595	
14.6484	
14.6469	
14.6667	
14.7141	
14.7675	
14.7354	
14.7308	
14.7476	
14.7583	
14.743	
14.7293	
14.7186	
14.6606	
14.6683	
14.6805	
14.6683	
14.7156	
14.7247	
14.7278	
14.7202	
14.7552	
14.7537	
14.7064	
14.6561	
14.6683	
14.6774	
14.6713	
14.6683	
14.5935	
14.5874	
14.621	
14.6133	
14.6133	
14.6774	
14.6851	
14.6881	
14.6942	
14.743	
14.7171	
14.6561	
14.6393	
14.6561	
14.6408	
14.6362	
14.6286	
14.5432	
14.5569	
14.6042	
14.5859	
14.6057	
14.6652	
14.6744	
14.6835	
14.6973	
14.74	
14.7095	
14.6835	
14.6637	
14.6713	
14.6774	
14.6729	
14.6362	
14.5462	
14.5142	
14.502	
14.476	
14.4699	
14.476	
14.505	
14.5386	
14.6332	
14.679	
14.6851	
14.6957	
14.7156	
14.7354	
14.7461	
14.7583	
14.6835	
14.6729	
14.7232	
14.7171	
14.6942	
14.7308	
14.7232	
14.7232	
14.7202	
14.7491	
14.6667	
14.6484	
14.6225	
14.592	
14.5737	
14.5767	
14.5782	
14.5203	
14.5416	
14.6072	
14.6301	
14.6515	
14.6927	
14.65	
14.6133	
14.6439	
14.6896	
14.6545	
14.6133	
14.5981	
14.505	
14.4409	
14.444	
14.4531	
14.4043	
14.4867	
14.5416	
14.5859	
14.6439	
14.6957	
14.7369	
14.7537	
14.7766	
14.6637	
14.5615	
14.505	
14.5233	
14.5477	
14.5676	
14.6042	
14.5782	
14.6164	
14.7003	
14.711	
14.7263	
14.7842	
14.7842	
14.7873	
14.7552	
14.772	
14.743	
14.6881	
14.6576	
14.682	
14.679	
14.6698	
14.6347	
14.537	
14.5569	
14.6072	
14.6088	
14.624	
14.6606	
14.6774	
14.6957	
14.7202	
14.7614	
14.7491	
14.6957	
14.6606	
14.6576	
14.65	
14.6408	
14.6362	
14.5859	
14.6088	
14.6423	
14.653	
14.6774	
14.6866	
14.7018	
14.6973	
14.7446	
14.7324	
14.6942	
14.6652	
14.653	
14.6652	
14.6606	
14.6622	
14.5859	
14.563	
14.6042	
14.5569	
14.534	
14.5798	
14.5981	
14.6103	
14.6271	
14.6774	
14.6378	
14.6072	
14.5844	
14.621	
14.6255	
14.6332	
14.6317	
14.5676	
14.5752	
14.6088	
14.5386	
14.5325	
14.5813	
14.595	
14.6194	
14.6484	
14.6729	
14.6362	
14.621	
14.6011	
14.6179	
14.6255	
14.6347	
14.6408	
14.5935	
14.6362	
14.6591	
14.6927	
14.7339	
14.7476	
14.7552	
14.7522	
14.7781	
14.7659	
14.7369	
14.7202	
14.6988	
14.6927	
14.6805	
14.6332	
14.5279	
14.5157	
14.5233	
14.4958	
14.502	
14.5584	
14.5767	
14.6088	
14.6317	
14.7034	
14.7125	
14.6439	
14.592	
14.595	
14.592	
14.6011	
14.595	
14.4974	
14.5111	
14.5706	
14.5676	
14.5584	
14.653	
14.6698	
14.6881	
14.711	
14.7491	
14.7308	
14.7064	
14.6606	
14.5889	
14.476	
14.4302	
14.444	
14.3967	
14.4638	
14.5294	
14.5737	
14.6439	
14.6744	
14.7049	
14.7217	
14.7827	
14.8041	
14.7476	
14.7141	
14.7064	
14.7064	
14.7171	
14.7186	
14.653	
14.65	
14.6713	
14.6561	
14.6591	
14.7034	
14.711	
14.7156	
14.7156	
14.7568	
14.7232	
14.653	
14.6347	
14.6667	
14.6591	
14.6545	
14.65	
14.5798	
14.5844	
14.624	
14.6179	
14.6164	
14.6683	
14.6667	
14.6698	
14.6744	
14.6896	
14.6591	
14.6225	
14.5813	
14.5203	
14.4943	
14.4791	
14.4455	
14.3967	
14.4424	
14.5065	
14.5584	
14.6088	
14.65	
14.6637	
14.6088	
14.6072	
14.595	
14.5462	
14.5248	
14.5737	
14.6103	
14.6515	
14.6988	
14.6408	
14.65	
14.6942	
14.6774	
14.6957	
14.7675	
14.7629	
14.7476	
14.7202	
14.7522	
14.7186	
14.6561	
14.6179	
14.6317	
14.6362	
14.6179	
14.6164	
14.5554	
14.5721	
14.621	
14.5706	
14.5752	
14.6484	
14.6484	
14.6393	
14.653	
14.6973	
14.6622	
14.6393	
14.6317	
14.6301	
14.6347	
14.6378	
14.6347	
14.534	
14.534	
14.5721	
14.5798	
14.6347	
14.6591	
14.6698	
14.682	
14.7202	
14.7049	
14.679	
14.6576	
14.6469	
14.6576	
14.6606	
14.6515	
14.5889	
14.5905	
14.6362	
14.6027	
14.6042	
14.6683	
14.6667	
14.621	
14.5844	
14.595	
14.5584	
14.4943	
14.4897	
14.5294	
14.5569	
14.5874	
14.6072	
14.5615	
14.5966	
14.6591	
14.6591	
14.6744	
14.7446	
14.7659	
14.7461	
14.7324	
14.7629	
14.6912	
14.6362	
14.5813	
14.5264	
14.502	
14.5081	
14.5172	
14.4821	
14.5294	
14.592	
14.6255	
14.682	
14.7049	
14.7263	
14.74	
14.7858	
14.7873	
14.7415	
14.682	
14.6545	
14.6469	
14.6301	
14.6194	
14.5477	
14.5554	
14.595	
14.5782	
14.5813	
14.6362	
14.6469	
14.6423	
14.6378	
14.682	
14.6393	
14.6011	
14.5935	
14.6301	
14.6255	
14.6271	
14.6194	
14.5508	
14.5447	
14.5981	
14.592	
14.5905	
14.6194	
14.6317	
14.6393	
14.6637	
14.7202	
14.6881	
14.6637	
14.624	
14.653	
14.6423	
14.6362	
14.6332	
14.5584	
14.5554	
14.566	
14.534	
14.5264	
14.5325	
14.5538	
14.563	
14.6378	
14.6622	
14.6423	
14.6439	
14.65	
14.6393	
14.6378	
14.6484	
14.5996	
14.6088	
14.6622	
14.6805	
14.6713	
14.7049	
14.6912	
14.6957	
14.6881	
14.7278	
14.6988	
14.6515	
14.6332	
14.6271	
14.6011	
14.5905	
14.5859	
14.5203	
14.5416	
14.592	
14.5798	
14.5584	
14.6118	
14.621	
14.6317	
14.6515	
14.7141	
14.6927	
14.6835	
14.6622	
14.6866	
14.6881	
14.6683	
14.6698	
14.6057	
14.621	
14.6439	
14.624	
14.6561	
14.6591	
14.653	
14.6469	
14.6805	
14.6606	
14.6271	
14.6072	
14.5935	
14.6011	
14.6027	
14.6103	
14.5538	
14.566	
14.6027	
14.6011	
14.621	
14.6698	
14.6851	
14.6988	
14.7064	
14.7552	
14.7186	
14.6606	
14.6301	
14.6652	
14.6332	
14.6118	
14.5905	
14.5035	
14.4897	
14.534	
14.5126	
14.502	
14.592	
14.6103	
14.6194	
14.6194	
14.6637	
14.6286	
14.6057	
14.6118	
14.6301	
14.6362	
14.6652	
14.6866	
14.6255	
14.6591	
14.6637	
14.6576	
14.6729	
14.6729	
14.6881	
14.6744	
14.7202	
14.7202	
14.679	
14.6439	
14.6439	
14.6622	
14.6698	
14.6637	
14.5889	
14.595	
14.621	
14.6072	
14.6194	
14.6561	
14.6637	
14.6835	
14.6835	
14.7125	
14.6896	
14.621	
14.5859	
14.6225	
14.6255	
14.621	
14.6072	
14.4897	
14.4852	
14.5462	
14.5294	
14.5615	
14.624	
14.6423	
14.653	
14.6774	
14.7354	
14.7217	
14.7095	
14.6927	
14.6881	
14.6545	
14.6408	
14.6301	
14.5569	
14.5584	
14.5935	
14.6042	
14.6469	
14.6622	
14.6805	
14.6927	
14.7552	
14.7629	
14.7247	
14.7095	
14.6851	
14.6851	
14.6729	
14.6667	
14.5569	
14.5248	
14.5355	
14.5172	
14.5325	
14.6042	
14.6118	
14.6255	
14.6317	
14.6729	
14.6393	
14.5813	
14.5844	
14.5981	
14.595	
14.6118	
14.6423	
14.5752	
14.5889	
14.6317	
14.5981	
14.5691	
14.6271	
14.6439	
14.6683	
14.6957	
14.7461	
14.7141	
14.7141	
14.6988	
14.7034	
14.6973	
14.6988	
14.7049	
14.6271	
14.6408	
14.6561	
14.6469	
14.6835	
14.6896	
14.6851	
14.682	
14.7186	
14.7202	
14.6591	
14.6317	
14.6286	
14.6423	
14.6469	
14.65	
14.5981	
14.6088	
14.6545	
14.6484	
14.6378	
14.6927	
14.7034	
14.6881	
14.6896	
14.7491	
14.7186	
14.6439	
14.6027	
14.5569	
14.5447	
14.5477	
14.5569	
14.5004	
14.5279	
14.5584	
14.5294	
14.5355	
14.566	
14.592	
14.624	
14.6667	
14.7369	
14.7308	
14.7064	
14.6866	
14.7049	
14.7049	
14.7034	
14.7049	
14.6484	
14.6637	
14.7125	
14.7141	
14.7354	
14.7461	
14.7522	
14.7446	
14.7949	
14.7903	
14.7446	
14.711	
14.6896	
14.6988	
14.6942	
14.6835	
14.6027	
14.5981	
14.6271	
14.5889	
14.5859	
14.6606	
14.6744	
14.6881	
14.6851	
14.7232	
14.7141	
14.6667	
14.6515	
14.6774	
14.6729	
14.6835	
14.679	
14.6088	
14.6225	
14.6729	
14.6393	
14.6439	
14.6729	
14.6606	
14.6393	
14.6225	
14.6591	
14.6301	
14.6271	
14.6255	
14.6194	
14.6255	
14.6393	
14.6606	
14.6255	
14.6561	
14.6866	
14.6973	
14.7263	
14.7278	
14.743	
14.7217	
14.7537	
14.7339	
14.6805	
14.6332	
14.6393	
14.65	
14.653	
14.6606	
14.6011	
14.6164	
14.6912	
14.6698	
14.6301	
14.5935	
14.5462	
14.5477	
14.5569	
14.6347	
14.6317	
14.6484	
14.6576	
14.6896	
14.7141	
14.7324	
14.7491	
14.7171	
14.7369	
14.7797	
14.7522	
14.7629	
14.7781	
14.772	
14.7797	
14.7858	
14.8193	
14.7888	
14.7369	
14.6881	
14.6637	
14.6591	
14.6393	
14.6484	
14.5935	
14.6347	
14.6393	
14.6484	
14.6912	
14.6866	
14.6805	
14.6957	
14.743	
14.7308	
14.6957	
14.6942	
14.7064	
14.7263	
14.7339	
14.7324	
14.6713	
14.6805	
14.7202	
14.7156	
14.7003	
14.7339	
14.7354	
14.7522	
14.7461	
14.7858	
14.7507	
14.7446	
14.7354	
14.7369	
14.7308	
14.7278	
14.7278	
14.6576	
14.6637	
14.711	
14.6988	
14.7003	
14.7324	
14.7369	
14.7354	
14.7461	
14.7949	
14.7644	
14.7247	
14.7049	
14.7125	
14.711	
14.7202	
14.7202	
14.653	
14.6896	
14.7141	
14.7095	
14.7202	
14.7217	
14.7095	
14.6622	
14.6698	
14.6622	
14.5813	
14.5584	
14.5721	
14.595	
14.6179	
14.6423	
14.5554	
14.4943	
14.537	
14.563	
14.5905	
14.6561	
14.7003	
14.7339	
14.7522	
14.8102	
14.7873	
14.8041	
14.8071	
14.8087	
14.7949	
14.8117	
14.8376	
14.7537	
14.7415	
14.7919	
14.7781	
14.74	
14.7614	
14.7797	
14.7842	
14.7873	
14.8376	
14.8224	
14.798	
14.7766	
14.8041	
14.7903	
14.7736	
14.7644	
14.6896	
14.6942	
14.7171	
14.7217	
14.743	
14.7507	
14.7552	
14.7568	
14.8117	
14.8193	
14.7797	
14.7507	
14.7507	
14.7751	
14.7736	
14.772	
14.6957	
14.682	
14.6561	
14.6347	
14.6317	
14.6851	
14.7034	
14.7293	
14.7568	
14.8026	
14.7949	
14.7552	
14.7247	
14.7659	
14.7797	
14.7842	
14.7873	
14.7141	
14.7308	
14.7598	
14.7369	
14.7263	
14.7781	
14.7781	
14.7797	
14.7873	
14.8361	
14.8148	
14.7873	
14.7522	
14.7659	
14.743	
14.7232	
14.7125	
14.6332	
14.6027	
14.6103	
14.5996	
14.6164	
14.6423	
14.6637	
14.7034	
14.7888	
14.8254	
14.8224	
14.8178	
14.8148	
14.8544	
14.8682	
14.8758	
14.8148	
14.8285	
14.8529	
14.827	
14.8132	
14.7919	
14.7827	
14.7873	
14.7888	
14.8422	
14.8346	
14.7919	
14.8193	
14.7888	
14.7766	
14.7797	
14.7858	
14.7171	
14.7232	
14.7751	
14.7507	
14.7507	
14.8163	
14.8254	
14.8254	
14.8102	
14.8483	
14.7964	
14.7751	
14.7522	
14.7827	
14.7659	
14.7598	
14.7659	
14.7064	
14.7263	
14.7522	
14.7614	
14.8026	
14.8148	
14.8193	
14.8224	
14.8849	
14.8956	
14.859	
14.8026	
14.798	
14.801	
14.7964	
14.7766	
14.6988	
14.6988	
14.7217	
14.6988	
14.6973	
14.7522	
14.7614	
14.7614	
14.7644	
14.8209	
14.8102	
14.7614	
14.7644	
14.8087	
14.8148	
14.8193	
14.8376	
14.7598	
14.7614	
14.7964	
14.7919	
14.7934	
14.856	
14.8422	
14.8056	
14.801	
14.8239	
14.7705	
14.7339	
14.7156	
14.7522	
14.7659	
14.7827	
14.8026	
14.7415	
14.772	
14.798	
14.7797	
14.8117	
14.83	
14.8361	
14.8392	
14.8895	
14.9033	
14.8911	
14.8712	
14.8575	
14.8544	
14.8209	
14.8224	
14.7598	
14.7278	
14.7842	
14.7675	
14.7919	
14.8544	
14.8804	
14.8941	
14.8849	
14.8987	
14.8117	
14.6713	
14.6118	
14.6027	
14.5859	
14.595	
14.6378	
14.6057	
14.6667	
14.7705	
14.7934	
14.83	
14.9353	
14.9567	
14.9826	
14.9918	
15.0497	
15.0131	
14.9811	
14.9536	
14.9445	
14.9139	
14.9063	
14.8788	
14.7751	
14.7827	
14.7827	
14.7797	
14.8163	
14.8422	
14.856	
14.8666	
14.9063	
14.917	
14.8834	
14.8758	
14.8697	
14.8895	
14.888	
14.8819	
14.8071	
14.8132	
14.8392	
14.8178	
14.8224	
14.8773	
14.8804	
14.8773	
14.8819	
14.9185	
14.8605	
14.8071	
14.8056	
14.8148	
14.8224	
14.83	
14.8254	
14.7308	
14.74	
14.7949	
14.7766	
14.7766	
14.8651	
14.8743	
14.8514	
14.8148	
14.8102	
14.7812	
14.711	
14.6851	
14.711	
14.7369	
14.7751	
14.8163	
14.7873	
14.8239	
14.8895	
14.8987	
14.9307	
14.9414	
14.9673	
14.9399	
14.9429	
14.9002	
14.8453	
14.8239	
14.8239	
14.8331	
14.8438	
14.859	
14.8026	
14.827	
14.8788	
14.8819	
14.8834	
14.9109	
14.9063	
14.9109	
14.8972	
14.9399	
14.9124	
14.856	
14.8575	
14.8911	
14.8972	
14.8987	
14.9094	
14.8254	
14.8132	
14.8544	
14.8697	
14.8712	
14.9063	
14.9002	
14.9078	
14.9216	
14.9841	
14.9414	
14.9109	
14.9231	
14.9261	
14.9048	
14.8834	
14.8849	
14.8193	
14.83	
14.8758	
14.8819	
14.8987	
14.9063	
14.9063	
14.9094	
14.9597	
14.9567	
14.9277	
14.859	
14.856	
14.8651	
14.856	
14.8499	
14.7964	
14.7903	
14.8407	
14.8285	
14.8407	
14.8911	
14.9017	
14.8972	
14.8651	
14.9033	
14.8209	
14.7171	
14.7003	
14.7461	
14.7583	
14.7903	
14.8224	
14.7751	
14.8117	
14.8834	
14.8941	
14.9277	
15.004	
15.0116	
15.0009	
14.9918	
14.9994	
14.9414	
14.9033	
14.8788	
14.8636	
14.8636	
14.8468	
14.8682	
14.8148	
14.8605	
14.9017	
14.9109	
14.9414	
14.9689	
14.9765	
14.9582	
14.975	
14.9445	
14.888	
14.827	
14.8483	
14.8697	
14.8911	
14.8972	
14.8148	
14.83	
14.8773	
14.8407	
14.8636	
14.9307	
14.9338	
14.946	
14.9521	
15.0253	
15.004	
14.9536	
14.92	
14.9139	
14.8956	
14.8865	
14.8636	
14.7736	
14.7964	
14.8438	
14.8422	
14.8331	
14.8941	
14.8804	
14.8682	
14.8911	
14.9704	
14.9689	
14.9872	
14.9948	
15.007	
15.0269	
15.0208	
15.0101	
14.9521	
14.9643	
14.9414	
14.8743	
14.8758	
14.9109	
14.9033	
14.9139	
14.9887	
15.0116	
14.9994	
14.9887	
14.9933	
15.0146	
15.0085	
14.9887	
14.8544	
14.8163	
14.8438	
14.8376	
14.856	
14.9277	
14.9338	
14.9536	
14.9506	
15.0009	
14.9902	
14.9368	
14.8743	
14.8514	
14.8422	
14.8666	
14.917	
14.8422	
14.7324	
14.6973	
14.6942	
14.6667	
14.7339	
14.8117	
14.9017	
14.9124	
14.9582	
14.9429	
14.9338	
14.9323	
14.9536	
14.9429	
14.9261	
14.9139	
14.8346	
14.8727	
14.9139	
14.9582	
15.0284	
15.0742	
15.0848	
15.0879	
15.1321	
15.1291	
15.094	
15.0406	
14.9902	
15.0131	
15.0269	
15.0131	
14.9216	
14.8422	
14.8102	
14.7598	
14.7705	
14.8529	
14.8499	
14.8743	
14.9094	
15.004	
15.0192	
14.9811	
14.9734	
15.0101	
14.9445	
14.946	
14.9734	
14.8956	
14.8514	
14.7461	
14.6576	
14.621	
14.7003	
14.7293	
14.7736	
14.8224	
14.9368	
14.9658	
14.9796	
14.978	
14.8392	
14.7827	
14.7903	
14.7766	
14.5721	
14.5325	
14.5905	
14.6591	
14.7232	
14.8117	
14.9292	
15.0253	
15.1703	
15.239	
15.1886	
15.1428	
15.1047	
15.1001	
15.1138	
15.1154	
15.0589	
15.033	
15.0345	
14.9765	
14.975	
15.0131	
15.0009	
15.007	
14.9704	
14.9643	
14.9063	
14.8239	
14.8468	
14.92	
14.9582	
15.0131	
15.0803	
15.0269	
15.0436	
15.0696	
15.0299	
15.0436	
15.1016	
15.097	
15.0436	
14.9628	
15.0085	
14.946	
14.888	
14.8895	
14.9429	
14.9429	
14.9612	
14.9872	
14.9216	
14.9338	
15.0024	
15.0528	
15.0833	
15.0574	
14.9902	
14.8956	
14.9338	
14.9475	
14.9445	
14.9277	
14.9384	
15.0009	
15.0574	
15.1001	
15.0772	
15.1199	
15.1779	
15.1978	
15.1886	
15.1169	
15.0284	
14.9948	
15.0131	
14.9353	
14.9002	
14.8712	
14.8758	
14.9597	
15.0238	
15.0314	
15.0497	
14.9994	
15.0269	
15.0955	
15.097	
15.1047	
15.1306	
15.0986	
15.0803	
15.062	
15.094	
15.0375	
15.0314	
15.0299	
15.0162	
15.0131	
15.0162	
14.9597	
14.8209	
14.8605	
14.9368	
15.0146	
15.1077	
15.1825	
15.2191	
15.2206	
15.2878	
15.2893	
15.2573	
15.1886	
15.1535	
15.1688	
15.1611	
15.1199	
15.0192	
14.9628	
14.949	
14.7583	
14.5554	
14.5386	
14.5309	
14.6027	
14.7018	
14.8636	
14.9765	
15.0513	
15.1428	
15.2481	
15.2328	
15.1794	
15.1245	
15.0299	
15.0238	
15.065	
15.0543	
15.062	
15.1505	
15.1749	
15.2252	
15.2664	
15.3168	
15.2496	
15.2573	
15.2695	
15.2206	
15.0986	
14.9872	
14.9185	
14.8193	
14.827	
14.8834	
14.9185	
14.9979	
15.0848	
15.1566	
15.1535	
15.1108	
15.1306	
15.1428	
15.1199	
15.152	
15.21	
15.2222	
15.239	
15.1825	
15.1871	
15.2161	
15.152	
15.1505	
15.2069	
15.2222	
15.2084	
15.1581	
15.1901	
15.1535	
15.0299	
14.9673	
14.946	
14.8422	
14.8499	
14.8804	
14.801	
14.8376	
14.9353	
14.9445	
14.9521	
15.0665	
15.1398	
15.21	
15.2542	
15.3336	
15.3152	
15.2542	
15.0757	
14.772	
14.5599	
14.5203	
14.5233	
14.5157	
14.6439	
14.8727	
15.0421	
15.2008	
15.2725	
15.3336	
15.3229	
15.3595	
15.2069	
15.0742	
15.0345	
15.0558	
15.1184	
15.1596	
15.1459	
15.1001	
15.1169	
15.181	
15.2374	
15.2893	
15.3152	
15.3427	
15.2191	
15.1932	
15.1535	
15.1138	
15.0726	
15.0101	
14.9887	
14.9826	
15.036	
15.097	
15.097	
15.1794	
15.2618	
15.2695	
15.2878	
15.3488	
15.2863	
15.2725	
15.2283	
15.1901	
15.0742	
15.0711	
15.1047	
15.1596	
15.2084	
15.2405	
15.3122	
15.2008	
15.1581	
15.2145	
15.2771	
15.3687	
15.3976	
15.3519	
15.1642	
15.0162	
14.9734	
14.917	
14.9017	
14.9521	
15.0467	
15.1489	
15.2267	
15.2359	
15.3107	
15.3519	
15.3671	
15.3625	
15.3809	
15.2863	
15.1932	
15.1611	
15.152	
15.1459	
15.152	
15.181	
15.2588	
15.2557	
15.1031	
14.7644	
14.5813	
14.5691	
14.6332	
14.8026	
14.9307	
15.1031	
15.2496	
15.4221	
15.4648	
15.5426	
15.4251	
15.3183	
15.3183	
15.2481	
15.2527	
15.2206	
15.2542	
15.2237	
15.2328	
15.242	
15.2527	
15.3488	
15.4327	
15.4526	
15.4953	
15.4755	
15.4099	
15.3137	
15.274	
15.2603	
15.2542	
15.2328	
15.2496	
15.155	
15.1917	
15.2374	
15.2039	
15.2008	
14.9368	
14.7736	
14.7827	
14.8712	
15.0192	
15.0558	
15.1642	
15.2359	
15.3519	
15.4099	
15.5502	
15.6464	
15.5914	
15.5762	
15.6464	
15.6067	
15.538	
15.5426	
15.3519	
15.2039	
15.1337	
15.0986	
15.0589	
15.0452	
15.0726	
15.1794	
15.2664	
15.3427	
15.4617	
15.5136	
15.6082	
15.5701	
15.4129	
15.2176	
15.1367	
15.1321	
15.152	
15.2832	
15.3229	
15.3351	
15.3839	
15.4999	
15.6296	
15.6631	
15.5914	
15.4999	
15.4388	
15.4343	
15.3946	
15.3564	
15.3412	
15.0864	
14.9841	
14.856	
14.8438	
14.8865	
14.9338	
15.0528	
15.1932	
15.3214	
15.4144	
15.3473	
15.1581	
15.213	
15.2924	
15.2863	
15.2679	
15.3427	
15.4144	
15.5273	
15.6418	
15.7181	
15.7272	
15.7181	
15.5563	
15.2771	
15.0055	
14.9826	
15.0558	
15.0925	
15.2161	
15.3091	
15.4114	
15.5914	
15.7333	
15.8966	
15.8798	
15.7349	
15.6281	
15.5701	
15.5243	
15.4907	
15.4739	
15.4572	
15.4129	
15.361	
15.3793	
15.3763	
15.2054	
15.1459	
15.1688	
15.1352	
15.1154	
15.1398	
15.2908	
15.3702	
15.4449	
15.5365	
15.6204	
15.6219	
15.6479	
15.5838	
15.3946	
15.3488	
15.3687	
15.2939	
15.2206	
15.1215	
15.0375	
15.0467	
15.1382	
15.3	
15.3168	
15.2985	
15.2634	
15.332	
15.4587	
15.567	
15.5426	
15.4327	
15.4358	
15.5472	
15.6204	
15.7059	
15.712	
15.6143	
15.4434	
15.3976	
15.3351	
15.2542	
15.2039	
15.2206	
15.2573	
15.2542	
15.3397	
15.387	
15.4877	
15.567	
15.5655	
15.5319	
15.4999	
15.4007	
15.2985	
15.2496	
15.2924	
15.123	
15.0742	
15.1047	
15.2603	
15.3915	
15.477	
15.4938	
15.3717	
15.3763	
15.4358	
15.4572	
15.4648	
15.5533	
15.6204	
15.6326	
15.4572	
15.3564	
15.2328	
15.0955	
14.9658	
15.0024	
15.1169	
15.184	
15.3351	
15.3854	
15.4861	
15.5472	
15.6723	
15.6708	
15.4449	
15.3625	
15.3137	
15.3152	
15.2496	
15.2451	
15.2359	
15.2802	
15.3183	
15.2786	
15.2222	
15.1031	
15.1352	
15.2008	
15.242	
15.2039	
15.303	
15.2771	
15.2313	
15.3122	
15.303	
15.1642	
14.9628	
14.9933	
15.1764	
15.2847	
15.3198	
15.3839	
15.4556	
15.5991	
15.657	
15.5106	
15.4663	
15.4465	
15.4251	
15.3915	
15.3824	
15.4144	
15.3503	
15.329	
15.3183	
15.2664	
15.1291	
14.9094	
14.6133	
14.4608	
14.5096	
14.7049	
14.9612	
15.3946	
15.6998	
15.7333	
15.834	
15.8783	
15.7166	
15.5396	
15.4297	
15.4037	
15.4144	
15.4007	
15.3625	
15.1276	
14.9979	
14.9673	
14.9368	
14.949	
15.0757	
15.0635	
15.1001	
15.1352	
15.2893	
15.2969	
15.1886	
15.2252	
15.3015	
15.3793	
15.4617	
15.3381	
15.1901	
15.155	
15.2069	
15.1489	
15.1016	
15.1047	
15.1154	
15.1886	
15.2634	
15.3717	
15.3397	
15.3427	
15.3198	
15.3137	
15.2679	
15.2161	
15.242	
15.1962	
15.0879	
15.0452	
15.0391	
15.0986	
15.126	
15.181	
15.2481	
15.3183	
15.3397	
15.1993	
15.0742	
15.0406	
15.036	
15.0131	
14.8865	
14.7751	
14.6957	
14.7461	
14.8041	
14.9445	
15.1337	
15.2008	
15.4022	
15.2847	
15.0757	
14.8743	
14.7461	
14.5813	
14.6057	
14.682	
14.8422	
15.0925	
15.1779	
15.2634	
15.5136	
15.6906	
15.5411	
15.387	
15.274	
15.1886	
15.1642	
15.2161	
15.21	
15.2222	
15.2283	
15.1398	
15.0589	
15.0162	
15.036	
14.9689	
14.9811	
15.0299	
15.123	
15.2527	
15.1688	
15.0314	
14.9811	
14.917	
14.8407	
14.7202	
14.6423	
14.7049	
14.7919	
14.8178	
14.9078	
14.978	
14.9536	
14.9261	
15.0635	
15.3854	
15.3763	
15.361	
15.3488	
15.3168	
15.3122	
15.1123	
14.8941	
14.8056	
14.8254	
14.859	
14.9384	
15.0192	
14.9811	
14.9734	
14.8499	
14.6576	
14.65	
14.6713	
14.7125	
14.8682	
14.9994	
15.0681	
15.0681	
15.0146	
14.8834	
14.7263	
14.7308	
14.7217	
14.9109	
14.9963	
15.094	
15.184	
15.2802	
15.1993	
15.0269	
14.9506	
15.065	
15.0986	
15.0436	
14.9628	
15.0055	
14.978	
14.8376	
14.7369	
14.6515	
14.624	
14.6561	
14.7568	
14.859	
14.92	
15.0833	
15.1566	
15.2878	
15.184	
14.8376	
14.4882	
14.444	
14.4836	
14.5386	
14.6637	
14.9124	
15.1535	
15.1932	
15.0803	
14.8697	
14.9185	
14.7812	
14.6866	
14.5844	
14.537	
14.5721	
14.6103	
14.7324	
15.033	
15.2359	
15.062	
14.8438	
14.7278	
14.772	
14.6591	
14.7232	
14.8132	
15.0101	
15.0238	
14.9109	
15.0299	
15.1077	
15.0833	
14.9719	
14.7827	
14.6255	
14.4135	
14.2761	
14.3539	
14.505	
14.5615	
14.7919	
14.9933	
15.0986	
14.9139	
14.5462	
14.3646	
14.3326	
13.8702	
13.7207	
13.6658	
13.8474	
13.916	
14.2227	
14.3173	
14.9307	
15.3488	
15.1978	
14.9429	
14.9261	
14.8972	
14.6545	
14.4974	
14.3646	
14.5065	
14.8026	
14.8697	
14.7934	
14.6851	
14.9033	
14.9307	
14.5187	
14.3478	
14.3127	
14.1846	
14.183	
14.0793	
14.4333	
14.8178	
14.6652	
14.7186	
14.7049	
14.5401	
14.4241	
14.1846	
13.7665	
13.6002	
13.7772	
13.9297	
14.2334	
14.5157	
14.9658	
15.2084	
14.8056	
14.1281	
13.9404	
13.6337	
13.4796	
13.6566	
13.9725	
14.6484	
15.1596	
14.7171	
14.653	
14.5782	
14.5004	
14.4211	
13.4415	
11.9354	
11.6669	
12.1521	
12.5732	
13.1882	
13.8916	
14.9399	
15.9164	
15.5518	
14.8773	
14.5584	
14.0518	
13.8458	
13.8931	
14.1754	
14.6439	
14.6591	
14.8193	
14.9658	
14.6133	
14.035	
13.7695	
13.8809	
13.9999	
14.2502	
14.8987	
15.2451	
14.6622	
13.9374	
13.7543	
13.3972	
13.2446	
12.7441	
12.9181	
13.5391	
14.003	
13.9847	
14.3433	
14.6332	
15.3076	
15.773	
14.8376	
13.7451	
13.4476	
13.4277	
13.5803	
13.884	
13.9908	
14.5111	
14.5767	
14.5615	
14.5538	
14.5859	
14.2181	
14.0686	
14.0778	
14.1205	
14.2868	
14.3631	
14.2014	
13.5513	
13.3011	
12.8616	
11.8576	
11.7645	
12.2772	
13.1149	
14.0381	
14.3036	
14.592	
14.5142	
14.1129	
13.5895	
13.4247	
13.5086	
13.7512	
13.7314	
13.6795	
13.7558	
13.739	
13.4048	
13.4933	
13.5162	
13.5513	
13.4293	
13.3545	
13.6032	
13.266	
12.9761	
13.0478	
12.8876	
13.1516	
13.3438	
13.3789	
13.1775	
12.2757	
11.5219	
11.6364	
12.0804	
12.5183	
13.1805	
13.9435	
14.8407	
14.5615	
13.0676	
11.7935	
11.6669	
11.8515	
12.0895	
12.3871	
13.0295	
13.9038	
14.0472	
13.8	
13.5056	
13.1271	
12.6114	
12.2772	
11.3068	
10.3012	
9.68933	
10.231	
11.1526	
12.3093	
13.4659	
14.1571	
14.357	
14.3082	
13.8687	
13.4079	
12.9105	
12.4771	
11.8973	
11.8073	
11.9156	
11.8729	
12.1811	
12.7731	
12.8586	
12.8159	
12.7838	
12.674	
12.5473	
12.2528	
11.9339	
11.5768	
10.0754	
8.91418	
9.12018	
9.86633	
10.82	
11.7676	
13.2996	
14.5035	
14.2197	
13.4949	
12.9486	
12.5687	
12.4084	
12.3337	
11.9415	
11.8011	
11.7325	
11.8713	
11.8073	
11.7874	
11.6364	
11.5738	
11.1084	
10.8902	
10.7544	
10.8292	
11.1343	
11.4182	
12.0407	
12.6358	
12.3795	
12.0972	
11.2289	
10.2158	
10.2295	
10.5499	
10.643	
10.2829	
10.672	
11.1832	
11.8683	
12.1429	
12.178	
12.6617	
12.9913	
12.825	
12.4405	
11.7126	
11.2625	
10.8139	
10.4309	
10.2768	
10.5515	
10.91	
11.1954	
11.8179	
11.8988	
11.7615	
11.7233	
11.2305	
10.6323	
9.88922	
9.88007	
10.2615	
10.7819	
11.1664	
12.0102	
12.3169	
12.2711	
12.0911	
11.6257	
11.6379	
11.2122	
10.3348	
9.89838	
9.99298	
10.4355	
10.997	
11.618	
12.7029	
13.0783	
12.6236	
11.9064	
11.5936	
11.377	
11.0367	
10.2707	
10.0342	
10.3363	
10.5255	
10.6094	
10.8459	
11.3876	
11.1725	
10.6705	
9.97314	
8.55103	
8.46863	
8.63953	
9.01794	
10.4126	
11.6745	
12.5931	
12.3505	
11.8637	
11.6013	
11.2457	
11.0474	
11.1908	
11.3464	
11.7844	
11.882	
11.9263	
11.9904	
11.4594	
9.87244	
7.49817	
6.87561	
7.49512	
8.61664	
9.66339	
11.3068	
13.5178	
12.0712	
11.1832	
10.6354	
10.556	
10.6979	
10.2966	
9.95636	
10.6659	
10.8078	
10.2402	
10.3088	
10.9573	
11.1603	
10.437	
10.2448	
10.231	
9.2514	
9.375	
9.56421	
8.47931	
9.06219	
9.52606	
9.50775	
10.3394	
11.1191	
11.8958	
12.3795	
11.9553	
11.6028	
11.1237	
10.3226	
9.8526	
9.04541	
8.06427	
8.4198	
9.61609	
11.0703	
11.8668	
12.8006	
13.4033	
13.3911	
12.8204	
11.9843	
11.3281	
10.9329	
10.3745	
10.1334	
8.62427	
8.33435	
8.9035	
9.6405	
10.4599	
11.3068	
12.5534	
12.9944	
11.6074	
9.60999	
9.02557	
9.15375	
9.31854	
9.65271	
10.2631	
11.29	
11.4136	
11.0489	
10.8383	
10.9253	
11.1435	
11.1282	
10.7697	
10.2859	
9.4223	
8.6792	
7.81708	
7.9834	
8.68988	
9.88617	
11.261	
12.3306	
12.7319	
12.5168	
11.7432	
11.3464	
10.9222	
10.1807	
9.37958	
8.97064	
8.93097	
8.13751	
7.78656	
8.56781	
9.66492	
10.5591	
11.1313	
11.5372	
12.0453	
11.8759	
11.4822	
11.0977	
10.8963	
10.1898	
9.4696	
9.04388	
8.97675	
8.79974	
8.88062	
9.27277	
10.1257	
10.5469	
10.7285	
10.9741	
11.2427	
11.0306	
10.2402	
9.53522	
9.33838	
9.3689	
9.6405	
9.86176	
10.5179	
10.9024	
11.5448	
11.2457	
10.8322	
9.11255	
8.0246	
8.12683	
8.6319	
9.42078	
10.1608	
11.1511	
12.1674	
11.6043	
9.98535	
9.4101	
9.53522	
9.77173	
10.3012	
10.7376	
10.8826	
10.6339	
10.1913	
10.1044	
10.2158	
10.2325	
10.1379	
10.1135	
10.0235	
10.0891	
10.0723	
10.0662	
10.2921	
10.4141	
9.48029	
9.09424	
9.2865	
9.57336	
9.9884	
10.2844	
10.9833	
11.1237	
10.1471	
9.2041	
8.88519	
8.96301	
9.09271	
9.12018	
9.68475	
10.3302	
10.4568	
10.5743	
10.6995	
11.1938	
11.1053	
10.0372	
9.17511	
8.93707	
9.21936	
9.62677	
9.47876	
8.95233	
9.2804	
9.99451	
9.88007	
10.0906	
10.6293	
11.2793	
11.3281	
10.7376	
10.0464	
9.79156	
9.71375	
9.76563	
9.96399	
10.1227	
9.93805	
9.79156	
9.5459	
9.83276	
10.1395	
10.4065	
10.5316	
10.5164	
9.76105	
9.43146	
9.66339	
9.83582	
10.0998	
9.84955	
9.34601	
9.22852	
8.82721	
7.45087	
7.04803	
7.77588	
9.00879	
9.99298	
11.0947	
12.3184	
12.5534	
12.3596	
11.9003	
11.2305	
10.7758	
10.5377	
10.3424	
9.82666	
9.48792	
9.37805	
9.63135	
9.88007	
10.0677	
10.4492	
10.5881	
10.1334	
10.0052	
9.43909	
8.62579	
7.79114	
7.71179	
8.15277	
8.89893	
9.9411	
10.8002	
11.7996	
12.0728	
11.5219	
10.9863	
10.2829	
9.5108	
9.23157	
9.28345	
9.52759	
9.70764	
10.1608	
10.7574	
10.495	
9.38416	
8.53119	
8.45947	
8.60901	
8.49762	
8.84705	
9.75189	
10.7529	
10.759	
10.3745	
10.73	
10.8551	
10.5362	
10.0845	
9.7702	
9.33838	
7.65381	
7.07397	
7.65381	
8.83789	
9.77631	
10.5621	
11.618	
11.853	
10.8658	
10.0403	
9.67407	
9.87396	
10.1837	
10.5286	
10.9268	
11.1252	
10.8322	
10.4385	
9.60846	
8.92334	
9.05762	
9.41162	
9.51385	
9.60541	
9.81903	
10.5011	
10.6918	
10.3394	
10.2448	
10.3287	
10.2066	
9.76868	
8.95081	
8.60443	
8.69598	
8.71429	
8.09021	
8.37402	
9.32465	
10.2264	
10.6049	
10.7513	
11.2198	
11.4594	
10.8398	
10.0983	
9.4101	
9.08051	
8.98438	
9.07898	
9.30786	
9.31244	
9.375	
9.79156	
9.62067	
9.94415	
10.0906	
10.228	
10.5545	
10.91	
10.6323	
10.3241	
9.94568	
9.02557	
8.60443	
7.77588	
7.27844	
7.36237	
8.30231	
9.06982	
9.99756	
10.7224	
11.2152	
11.0046	
10.5728	
10.2753	
10.0342	
9.63898	
9.56268	
9.71069	
10.0266	
9.81903	
9.35211	
8.95844	
8.20618	
6.61926	
6.67877	
7.62024	
8.81805	
10.0403	
11.2183	
12.2513	
12.9013	
11.8301	
11.0291	
10.2066	
9.66797	
9.45587	
9.42383	
9.50012	
9.73816	
9.91058	
10.0967	
10.0296	
10.0113	
9.83582	
9.08051	
8.57544	
8.79974	
9.21478	
9.57947	
9.76868	
10.2509	
10.5759	
9.63593	
9.0332	
9.17511	
9.32922	
9.6405	
9.96094	
10.2402	
10.2631	
9.74884	
9.552	
9.57794	
9.57489	
9.49097	
9.51996	
9.31854	
9.08508	
8.96912	
9.16748	
9.37042	
8.79517	
8.60291	
8.89587	
9.00421	
9.14307	
9.68323	
10.257	
10.7758	
10.9558	
10.7788	
10.1425	
9.83734	
9.75037	
9.66644	
9.73358	
9.85718	
9.95941	
10.08	
9.8114	
9.79767	
9.76715	
9.7168	
9.78546	
9.7229	
9.13696	
8.58765	
8.39996	
8.44116	
8.57391	
8.9859	
9.56879	
10.1135	
10.2188	
10.0525	
9.96094	
9.9762	
9.83276	
9.90601	
9.87549	
9.80225	
9.73053	
9.53369	
9.29108	
9.26056	
9.30939	
9.28955	
8.64716	
7.77588	
7.95288	
8.39539	
8.91266	
9.46045	
10.2661	
11.058	
11.2045	
10.5759	
10.1135	
9.8938	
9.84039	
9.81903	
9.77936	
9.73969	
9.74884	
9.7168	
9.68781	
9.65271	
9.60083	
9.55963	
9.5459	
9.54742	
9.50928	
9.2926	
8.63647	
8.28857	
8.23669	
8.20923	
8.21686	
8.57849	
9.44824	
10.2509	
10.17	
10.2356	
10.5804	
10.6369	
10.3424	
10.0693	
9.87549	
9.78088	
9.76563	
9.74884	
9.73053	
9.66949	
9.69696	
9.54132	
9.36432	
9.26208	
9.18427	
9.15833	
9.06525	
9.13239	
9.32465	
8.82263	
8.40607	
8.26874	
8.65631	
9.198	
9.62067	
10.0815	
10.7727	
10.9528	
10.5057	
10.0159	
9.98535	
9.99756	
9.91058	
9.83124	
9.74884	
9.68933	
9.62524	
9.61151	
9.64355	
9.63898	
9.4696	
9.32312	
9.19037	
9.22089	
9.17816	
9.12628	
9.32922	
9.56573	
9.55963	
9.729	
9.85413	
10.1196	
10.17	
9.97925	
9.91974	
9.935	
9.86481	
9.83734	
9.83429	
9.79004	
9.77478	
9.76563	
9.75037	
9.7702	
9.77325	
9.77783	
9.77631	
9.80072	
9.80225	
9.77783	
9.72443	
9.74121	
9.78088	
9.78241	
9.78241	
9.74426	
9.74426	
9.76105	
9.73053	
9.758	
9.80988	
9.82056	
9.82513	
9.82208	
9.87549	
9.85565	
9.80835	
9.79309	
9.84955	
9.84802	
9.85107	
9.85565	
9.8114	
9.82056	
9.83887	
9.82971	
9.79919	
9.88159	
9.88922	
9.8938	
9.90295	
9.92737	
9.87549	
9.84344	
9.84192	
9.86938	
9.87396	
9.8877	
9.8938	
9.89532	
9.90295	
9.85413	
9.84192	
9.8938	
9.90448	
9.9411	
9.92737	
9.77783	
9.72443	
9.70306	
9.73816	
9.8175	
9.89075	
9.9472	
9.9411	
9.7641	
9.66797	
9.73206	
9.71985	
9.82208	
9.94568	
10.0677	
10.1639	
10.1105	
10.0601	
10.025	
10.1273	
10.1669	
10.1486	
10.1532	
10.173	
10.2036	
10.1349	
9.95331	
9.92279	
9.92279	
9.87091	
9.86481	
9.90601	
10.0266	
10.1639	
10.1624	
10.1425	
10.1837	
10.2783	
10.3348	
10.2386	
10.1852	
10.1395	
10.0677	
10.0739	
10.1227	
10.1227	
10.1334	
10.1578	
10.17	
10.1654	
10.1776	
10.1791	
10.1593	
10.1135	
10.1135	
10.1212	
10.1196	
10.112	
10.0662	
10.0693	
10.1013	
10.0769	
10.0708	
10.1334	
10.1379	
10.144	
10.1471	
10.1715	
10.1471	
10.0891	
10.0922	
10.1303	
10.1151	
10.1151	
10.1288	
10.0708	
10.0754	
10.1059	
10.0845	
10.0967	
10.1395	
10.1349	
10.1486	
10.17	
10.2051	
10.1959	
10.1379	
10.1028	
10.1471	
10.144	
10.1578	
10.1486	
10.0815	
10.0998	
10.1166	
10.1135	
10.1028	
10.0876	
10.0708	
10.0739	
10.1074	
10.0952	
10.0754	
10.0098	
10.0479	
10.0555	
10.0327	
10.0647	
10.0769	
10.0739	
10.0922	
10.1181	
10.1501	
10.1974	
10.1669	
10.1334	
10.1273	
10.1517	
10.1532	
10.1654	
10.17	
10.2036	
10.2127	
10.1944	
10.1837	
10.1044	
10.0998	
10.1257	
10.0784	
10.0723	
10.1334	
10.1135	
10.1227	
10.1227	
10.144	
10.1196	
10.0906	
10.1028	
10.1654	
10.1547	
10.0891	
10.0769	
9.98688	
10.0067	
10.0708	
10.0479	
10.0739	
10.1212	
10.1517	
10.1639	
10.1822	
10.1791	
10.1974	
10.1959	
10.2097	
10.2127	
10.1761	
10.1959	
10.1608	
10.1395	
10.1578	
10.1318	
10.1425	
10.2112	
10.2219	
10.2158	
10.2158	
10.2539	
10.2341	
10.1959	
10.202	
10.2127	
10.2051	
10.2127	
10.2158	
10.1624	
10.17	
10.2249	
10.1654	
10.0754	
10.0845	
9.99756	
9.94568	
9.93042	
10.0067	
10.0342	
10.1456	
10.3195	
10.4172	
10.4599	
10.4752	
10.4248	
10.3241	
10.3165	
10.3378	
10.3485	
10.3683	
10.3577	
10.3577	
10.3607	
10.3989	
10.4004	
10.3622	
10.3073	
10.289	
10.2951	
10.2905	
10.2844	
10.228	
10.2509	
10.2875	
10.3073	
10.2982	
10.347	
10.3378	
10.3531	
10.3699	
10.4309	
10.4263	
10.3958	
10.408	
10.4263	
10.4156	
10.4095	
10.408	
10.35	
10.3577	
10.4019	
10.3806	
10.3973	
10.4538	
10.466	
10.4691	
10.4813	
10.4996	
10.4614	
10.4309	
10.4233	
10.4523	
10.463	
10.4721	
10.4996	
10.4553	
10.4767	
10.4889	
10.4843	
10.5057	
10.5194	
10.5362	
10.556	
10.6186	
10.611	
10.6125	
10.5499	
10.5682	
10.5743	
10.5515	
10.4919	
10.3455	
10.2737	
10.2386	
10.2081	
10.2341	
10.3333	
10.4141	
10.5652	
10.7147	
10.8429	
10.9024	
10.8139	
10.7971	
10.7971	
10.7697	
10.7513	
10.7544	
10.6842	
10.6873	
10.6995	
10.6796	
10.6796	
10.7193	
10.6659	
10.6537	
10.6415	
10.6812	
10.6445	
10.6323	
10.6216	
10.6461	
10.7025	
10.7178	
10.6812	
10.6369	
10.64	
10.6644	
10.7315	
10.8582	
10.9207	
10.9131	
10.936	
10.9802	
10.9711	
10.9329	
10.9116	
10.8887	
10.8795	
10.8719	
10.8643	
10.7971	
10.7986	
10.8246	
10.8246	
10.817	
10.8826	
10.8871	
10.9009	
10.9055	
10.9451	
10.9161	
10.8643	
10.8658	
10.8902	
10.8902	
10.8917	
10.8963	
10.8307	
10.8398	
10.8795	
10.8719	
10.878	
10.936	
10.9436	
10.9451	
10.965	
11.0031	
10.9787	
10.9467	
10.9451	
10.9558	
10.9573	
10.9619	
10.9573	
10.907	
10.9207	
10.9467	
10.9543	
10.9894	
11.0062	
11.0123	
11.026	
11.0718	
11.0703	
11.055	
11.0107	
11.0031	
11.0214	
11.0184	
11.0245	
10.9665	
10.9726	
10.9665	
10.9329	
10.939	
10.9848	
10.9985	
10.9985	
10.9985	
11.0397	
11.0245	
10.9039	
10.8276	
10.791	
10.7422	
10.7513	
10.7697	
10.762	
10.8795	
11.0199	
11.145	
11.2411	
11.3342	
11.3998	
11.4197	
11.4075	
11.4487	
11.377	
11.3358	
11.2564	
11.2732	
11.2534	
11.232	
11.2244	
11.1588	
11.1801	
11.2167	
11.2244	
11.2564	
11.2717	
11.2442	
11.1954	
11.1984	
11.1725	
11.142	
11.0809	
11.1191	
11.1633	
11.1984	
11.2366	
11.2137	
11.2717	
11.3342	
11.2823	
11.2549	
11.3052	
11.3098	
11.322	
11.3266	
11.3647	
11.3266	
11.2839	
11.2671	
11.2976	
11.2869	
11.2823	
11.2808	
11.2137	
11.2213	
11.261	
11.2213	
11.2549	
11.3037	
11.3113	
11.3174	
11.3297	
11.3602	
11.3403	
11.3159	
11.3083	
11.3144	
11.3052	
11.3037	
11.3068	
11.2427	
11.2717	
11.2823	
11.2915	
11.3281	
11.3434	
11.348	
11.351	
11.3968	
11.4044	
11.3693	
11.319	
11.3403	
11.3495	
11.348	
11.3235	
11.2457	
11.2488	
11.2671	
11.2747	
11.3022	
11.3831	
11.4029	
11.4166	
11.4227	
11.4777	
11.4609	
11.3876	
11.351	
11.3525	
11.3266	
11.3083	
11.2976	
11.2106	
11.1816	
11.1984	
11.203	
11.1725	
11.2289	
11.2808	
11.3235	
11.3708	
11.4517	
11.4655	
11.4456	
11.4456	
11.4929	
11.5051	
11.5417	
11.5616	
11.5021	
11.5402	
11.5707	
11.5677	
11.5906	
11.6043	
11.6165	
11.5936	
11.6379	
11.6348	
11.5875	
11.528	
11.4395	
11.3525	
11.2442	
11.1359	
10.9238	
10.9558	
11.0458	
11.1389	
11.2564	
11.4151	
11.5189	
11.6165	
11.7264	
11.8759	
11.8637	
11.8195	
11.7783	
11.7416	
11.7203	
11.7172	
11.6928	
11.6074	
11.5967	
11.6165	
11.6043	
11.6043	
11.6364	
11.6348	
11.6333	
11.6455	
11.6714	
11.6364	
11.6089	
11.5707	
11.5952	
11.5845	
11.5784	
11.5723	
11.5112	
11.5341	
11.5555	
11.5662	
11.6058	
11.6241	
11.6333	
11.644	
11.6943	
11.6898	
11.6516	
11.6394	
11.6211	
11.6302	
11.6302	
11.6333	
11.5677	
11.5692	
11.6089	
11.6043	
11.5982	
11.6653	
11.6714	
11.6776	
11.6791	
11.7218	
11.6837	
11.6562	
11.644	
11.6608	
11.6623	
11.6669	
11.6699	
11.6028	
11.6196	
11.6684	
11.644	
11.6806	
11.7294	
11.7401	
11.7493	
11.7722	
11.7981	
11.7676	
11.7432	
11.7386	
11.7004	
11.6776	
11.6745	
11.6608	
11.6074	
11.6241	
11.6516	
11.6516	
11.6837	
11.6837	
11.6943	
11.7065	
11.7706	
11.7523	
11.7371	
11.6699	
11.6028	
11.5768	
11.554	
11.5646	
11.525	
11.5814	
11.6547	
11.7218	
11.7767	
11.8805	
11.9263	
11.9553	
11.972	
12.0117	
11.9324	
11.7874	
11.7401	
11.7905	
11.7691	
11.7554	
11.7706	
11.7264	
11.763	
11.8317	
11.853	
11.8805	
11.9507	
11.9705	
11.9644	
11.9888	
12.0041	
11.9797	
11.9125	
11.8851	
11.9064	
11.9034	
11.8988	
11.8973	
11.8378	
11.85	
11.8729	
11.882	
11.9034	
11.9156	
11.9186	
11.9186	
11.9629	
11.9553	
11.9141	
11.8912	
11.8835	
11.9034	
11.8973	
11.8973	
11.8393	
11.8317	
11.8835	
11.8744	
11.8805	
11.9247	
11.9308	
11.9354	
11.9385	
11.9781	
11.9492	
11.9141	
11.8988	
11.9339	
11.9263	
11.9232	
11.9247	
11.8652	
11.8744	
11.9141	
11.8973	
11.9186	
11.9598	
11.9675	
11.9705	
11.9934	
12.0224	
12.001	
11.972	
11.9537	
11.9705	
11.9659	
11.9629	
11.969	
11.908	
11.9324	
11.9537	
11.9553	
11.9934	
12.0026	
12.0102	
12.0148	
12.0605	
12.059	
12.0209	
11.9858	
11.9919	
12.0056	
12.0041	
12.0071	
11.9446	
11.9446	
11.9751	
11.9553	
11.9736	
12.0346	
12.0422	
12.0483	
12.0529	
12.0987	
12.0605	
12.0255	
12.0209	
12.0422	
12.0377	
12.0361	
12.0422	
11.972	
11.9873	
12.0224	
12.001	
12.0193	
12.0728	
12.0804	
12.0819	
12.1033	
12.1338	
12.1048	
12.0773	
12.0728	
12.0743	
12.0743	
12.0728	
12.0728	
12.0087	
12.0316	
12.0575	
12.0483	
12.0728	
12.088	
12.0911	
12.0956	
12.1445	
12.149	
12.1094	
12.0773	
12.0651	
12.088	
12.0743	
12.0712	
12.0117	
12.0117	
12.056	
12.0529	
12.0621	
12.1277	
12.1429	
12.1506	
12.1567	
12.2009	
12.1796	
12.1185	
12.1185	
12.1536	
12.1445	
12.1445	
12.1429	
12.0697	
12.0789	
12.1231	
12.1246	
12.1429	
12.175	
12.1765	
12.1811	
12.2101	
12.2284	
12.207	
12.1613	
12.1292	
12.1704	
12.1674	
12.1628	
12.1704	
12.1078	
12.1262	
12.1567	
12.1628	
12.1872	
12.1964	
12.207	
12.2101	
12.262	
12.2574	
12.2177	
12.204	
12.1811	
12.2009	
12.1964	
12.204	
12.1384	
12.1353	
12.1735	
12.1719	
12.1765	
12.2314	
12.236	
12.2406	
12.2437	
12.294	
12.2498	
12.2238	
12.2177	
12.2375	
12.2345	
12.233	
12.236	
12.1658	
12.178	
12.2101	
12.1841	
12.1979	
12.2482	
12.2543	
12.2635	
12.3032	
12.3291	
12.2971	
12.2711	
12.2635	
12.2589	
12.2528	
12.2528	
12.2498	
12.1887	
12.2208	
12.2269	
12.236	
12.2726	
12.2803	
12.2894	
12.291	
12.3474	
12.3383	
12.3001	
12.2543	
12.2681	
12.2772	
12.2757	
12.2726	
12.2147	
12.2162	
12.2482	
12.2314	
12.233	
12.3032	
12.3123	
12.3154	
12.3215	
12.3642	
12.3199	
12.2742	
12.2757	
12.3077	
12.3016	
12.3016	
12.3032	
12.2391	
12.2513	
12.291	
12.2894	
12.3001	
12.3306	
12.3352	
12.3413	
12.3749	
12.3993	
12.3764	
12.3291	
12.3306	
12.3306	
12.3215	
12.326	
12.3245	
12.2696	
12.2803	
12.3108	
12.3199	
12.3489	
12.3611	
12.3627	
12.3627	
12.4115	
12.413	
12.3688	
12.3428	
12.3322	
12.355	
12.3489	
12.3489	
12.2818	
12.294	
12.3367	
12.3215	
12.3322	
12.3795	
12.3901	
12.3947	
12.3978	
12.442	
12.41	
12.3627	
12.3566	
12.3947	
12.3871	
12.3871	
12.3917	
12.3291	
12.3444	
12.384	
12.3642	
12.3978	
12.4146	
12.4176	
12.4252	
12.4512	
12.4741	
12.4451	
12.4084	
12.4054	
12.4222	
12.4176	
12.4191	
12.4176	
12.355	
12.3734	
12.41	
12.4191	
12.4374	
12.4573	
12.4588	
12.4634	
12.5214	
12.5031	
12.4649	
12.4252	
12.4283	
12.4481	
12.4435	
12.4435	
12.3779	
12.3779	
12.4146	
12.3993	
12.4084	
12.4664	
12.4771	
12.4832	
12.4847	
12.5305	
12.4939	
12.4634	
12.4542	
12.4817	
12.4695	
12.4695	
12.468	
12.3978	
12.413	
12.4496	
12.4344	
12.4588	
12.5015	
12.5107	
12.5168	
12.5519	
12.5687	
12.5473	
12.5275	
12.5229	
12.5275	
12.5046	
12.4893	
12.4893	
12.4313	
12.4588	
12.4893	
12.4939	
12.5381	
12.5549	
12.5504	
12.5626	
12.5961	
12.5671	
12.532	
12.532	
12.5107	
12.5168	
12.5153	
12.5168	
12.4557	
12.4695	
12.5229	
12.5183	
12.5168	
12.5854	
12.5839	
12.5717	
12.5656	
12.6129	
12.5748	
12.5626	
12.5549	
12.5565	
12.532	
12.529	
12.5427	
12.4802	
12.4924	
12.5305	
12.5473	
12.5793	
12.6038	
12.5992	
12.5916	
12.6389	
12.6495	
12.6236	
12.6068	
12.5977	
12.59	
12.5763	
12.5732	
12.5275	
12.5198	
12.5641	
12.5778	
12.5824	
12.6068	
12.619	
12.6205	
12.6266	
12.6785	
12.6724	
12.6266	
12.6221	
12.6053	
12.6175	
12.6144	
12.6129	
12.5534	
12.5549	
12.5992	
12.6053	
12.6099	
12.6419	
12.6556	
12.6511	
12.6648	
12.7075	
12.6602	
12.6312	
12.6251	
12.6373	
12.6358	
12.6389	
12.6419	
12.5671	
12.587	
12.6205	
12.6251	
12.6495	
12.6801	
12.6877	
12.6907	
12.7151	
12.7197	
12.7029	
12.6617	
12.6419	
12.6709	
12.6587	
12.6617	
12.6678	
12.5977	
12.6236	
12.6617	
12.6709	
12.6984	
12.706	
12.709	
12.7106	
12.7518	
12.7579	
12.7274	
12.6495	
12.6663	
12.6831	
12.6892	
12.6907	
12.616	
12.6297	
12.6617	
12.648	
12.6663	
12.7289	
12.7213	
12.7274	
12.7243	
12.7914	
12.7518	
12.709	
12.709	
12.7289	
12.7197	
12.7136	
12.7029	
12.6221	
12.645	
12.6816	
12.6801	
12.6968	
12.7365	
12.738	
12.7457	
12.7731	
12.8006	
12.7762	
12.7594	
12.7579	
12.7533	
12.7441	
12.7411	
12.7365	
12.6617	
12.6816	
12.6923	
12.7075	
12.7502	
12.7609	
12.764	
12.7625	
12.8174	
12.8052	
12.7747	
12.735	
12.7365	
12.7579	
12.767	
12.764	
12.6923	
12.6801	
12.6968	
12.6938	
12.6938	
12.7625	
12.7808	
12.7823	
12.7823	
12.8342	
12.7777	
12.7396	
12.7487	
12.7701	
12.767	
12.767	
12.7747	
12.6999	
12.7167	
12.7441	
12.7228	
12.7426	
12.7975	
12.7808	
12.793	
12.8311	
12.8448	
12.8082	
12.7731	
12.7884	
12.8128	
12.7945	
12.7808	
12.767	
12.6831	
12.7029	
12.7426	
12.7609	
12.7945	
12.8082	
12.8036	
12.8082	
12.8632	
12.8555	
12.8143	
12.7594	
12.7609	
12.7899	
