7.18384	
7.19299	
7.19452	
7.18994	
7.18842	
7.19147	
7.18689	
7.18536	
7.18079	
7.18384	
7.18079	
7.18994	
7.18842	
7.18536	
7.18079	
7.18536	
7.18536	
7.18842	
7.19757	
7.18842	
7.19604	
7.19147	
7.19604	
7.18842	
7.19299	
7.18689	
7.17316	
7.17773	
7.18384	
7.17468	
7.16705	
7.164	
7.16553	
7.19757	
7.20673	
7.1991	
7.18689	
7.19147	
7.18842	
7.18689	
7.18689	
7.18079	
7.18536	
7.18536	
7.18689	
7.18536	
7.18994	
7.18689	
7.18689	
7.18689	
7.18994	
7.18994	
7.18689	
7.17621	
7.17316	
7.18689	
7.2052	
7.19604	
7.18689	
7.18536	
7.18384	
7.19147	
7.18842	
7.18842	
7.17773	
7.18384	
7.18536	
7.18842	
7.18842	
7.18689	
7.18842	
7.18384	
7.18842	
7.18384	
7.18689	
7.18536	
7.18384	
7.19452	
7.19757	
7.19604	
7.18994	
7.18994	
7.18994	
7.19147	
7.18994	
7.19452	
7.18536	
7.17773	
7.17468	
7.16858	
7.16858	
7.18384	
7.17926	
7.18536	
7.19604	
7.19147	
7.19299	
7.18079	
7.17773	
7.17468	
7.18079	
7.18384	
7.18536	
7.18842	
7.18384	
7.18384	
7.18079	
7.18079	
7.18079	
7.18536	
7.18689	
7.19604	
7.19299	
7.19604	
7.19299	
7.18994	
7.18079	
7.17926	
7.17621	
7.18536	
7.18689	
7.17316	
7.18384	
7.18536	
7.18842	
7.18842	
7.18842	
7.19147	
7.19147	
7.19299	
7.18689	
7.18842	
7.18079	
7.17163	
7.164	
7.17773	
7.19147	
7.19757	
7.19299	
7.19604	
7.19147	
7.18842	
7.18536	
7.18689	
7.19299	
7.18994	
7.19604	
7.18842	
7.19604	
7.19147	
7.19757	
7.19147	
7.18536	
7.18994	
7.17926	
7.17773	
7.17163	
7.19147	
7.19452	
7.19147	
7.18842	
7.19299	
7.19147	
7.19147	
7.18689	
7.19452	
7.19452	
7.19147	
7.19757	
7.18994	
7.18842	
7.18536	
7.18842	
7.18994	
7.19147	
7.18842	
7.18689	
7.19147	
7.18994	
7.19147	
7.18842	
7.18842	
7.19299	
7.18994	
7.18994	
7.18994	
7.17926	
7.18536	
7.19299	
7.19757	
7.18842	
7.18842	
7.18842	
7.17926	
7.18994	
7.18079	
7.18994	
7.18842	
7.18994	
7.18842	
7.19147	
7.18689	
7.18842	
7.18842	
7.19147	
7.18994	
7.18079	
7.18842	
7.18689	
7.18536	
7.18689	
7.18842	
7.18994	
7.18842	
7.18689	
7.18994	
7.19299	
7.19452	
7.19604	
7.18689	
7.19147	
7.18842	
7.19452	
7.19299	
7.19604	
7.18842	
7.18842	
7.19452	
7.19452	
7.19147	
7.18689	
7.20215	
7.19299	
7.1991	
7.19757	
7.19604	
7.19299	
7.18994	
7.18689	
7.19299	
7.18689	
7.18842	
7.19299	
7.19147	
7.1991	
7.19299	
7.1991	
7.19299	
7.19147	
7.19299	
7.1991	
7.19452	
7.19452	
7.19604	
7.19604	
7.19757	
7.19147	
7.18842	
7.19147	
7.19299	
7.18689	
7.19299	
7.19147	
7.19299	
7.19452	
7.19299	
7.19452	
7.19299	
7.19604	
7.19147	
7.19147	
7.18689	
7.19299	
7.19604	
7.20062	
7.19147	
7.19604	
7.20062	
7.20062	
7.20215	
7.19757	
7.1991	
7.19757	
7.19757	
7.19147	
7.19147	
7.19452	
7.19147	
7.19452	
7.20367	
7.1991	
7.19452	
7.19452	
7.18536	
7.19757	
7.1991	
7.19757	
7.19147	
7.19604	
7.20062	
7.20825	
7.20673	
7.2052	
7.20367	
7.19757	
7.19299	
7.18994	
7.19147	
7.19757	
7.19757	
7.19604	
7.20367	
7.21588	
7.20978	
7.2052	
7.20673	
7.20673	
7.20978	
7.21283	
7.20367	
7.20825	
7.20367	
7.20367	
7.2052	
7.20978	
7.20215	
7.1991	
7.20062	
7.20367	
7.20367	
7.19299	
7.19604	
7.20215	
7.1991	
7.1991	
7.20215	
7.19757	
7.19452	
7.18994	
7.19452	
7.18994	
7.21893	
7.21283	
7.2052	
7.20978	
7.20673	
7.2113	
7.20062	
7.19757	
7.19452	
7.20215	
7.19604	
7.20367	
7.21283	
7.2113	
7.21283	
7.20673	
7.20215	
7.19757	
7.20215	
7.2052	
7.20825	
7.20215	
7.20062	
7.20673	
7.2052	
7.20825	
7.21588	
7.21283	
7.20367	
7.20673	
7.1991	
7.20215	
7.20978	
7.21588	
7.2052	
7.1991	
7.20673	
7.20215	
7.20367	
7.20062	
7.20215	
7.20062	
7.20825	
7.21893	
7.20978	
7.20367	
7.2052	
7.20673	
7.20367	
7.20062	
7.2052	
7.20673	
7.1991	
7.20825	
7.2052	
7.21283	
7.20367	
7.20367	
7.20215	
7.20673	
7.20673	
7.20673	
7.2052	
7.2052	
7.20825	
7.20367	
7.20215	
7.20215	
7.20062	
7.20215	
7.2052	
7.2052	
7.20673	
7.20062	
7.20215	
7.20062	
7.19757	
7.20062	
7.1991	
7.20062	
7.19757	
7.19757	
7.19604	
7.19604	
7.19452	
7.19604	
7.19604	
7.1991	
7.20215	
7.19757	
7.19604	
7.19757	
7.20062	
7.19757	
7.19147	
7.19299	
7.2052	
7.20978	
7.20673	
7.19757	
7.1991	
7.1991	
7.19299	
7.19299	
7.19147	
7.1991	
7.20825	
7.20825	
7.2052	
7.2052	
7.20062	
7.18689	
7.19147	
7.1991	
7.19604	
7.19147	
7.18994	
7.21588	
7.21283	
7.20367	
7.1991	
7.20062	
7.20215	
7.20062	
7.20367	
7.20367	
7.20062	
7.20367	
7.20062	
7.2052	
7.20062	
7.20367	
7.2052	
7.20367	
7.19757	
7.20215	
7.20062	
7.20367	
7.20062	
7.19757	
7.20367	
7.1991	
7.20215	
7.1991	
7.20215	
7.1991	
7.20215	
7.20062	
7.1991	
7.19604	
7.20062	
7.20215	
7.19757	
7.20673	
7.1991	
7.20825	
7.20367	
7.1991	
7.20367	
7.20367	
7.2052	
7.20062	
7.19757	
7.19757	
7.19757	
7.1991	
7.19757	
7.19604	
7.19604	
7.19147	
7.19299	
7.19299	
7.19757	
7.18689	
7.19299	
7.1991	
7.19604	
7.19757	
7.19147	
7.18994	
7.18842	
7.18994	
7.18994	
7.19147	
7.18994	
7.19452	
7.19452	
7.18994	
7.19452	
7.18689	
7.18994	
7.19452	
7.19757	
7.19757	
7.20215	
7.19757	
7.19757	
7.19299	
7.19299	
7.19299	
7.19604	
7.19757	
7.19147	
7.20215	
7.19452	
7.19604	
7.18842	
7.19452	
7.18842	
7.18079	
7.18689	
7.18079	
7.17773	
7.17621	
7.19757	
7.18842	
7.18079	
7.19299	
7.2052	
7.19299	
7.20215	
7.20215	
7.20062	
7.1991	
7.1991	
7.19604	
7.19452	
7.20367	
7.19299	
7.19452	
7.18994	
7.19299	
7.19757	
7.19757	
7.19299	
7.19147	
7.19147	
7.19299	
7.19452	
7.18994	
7.19452	
7.18842	
7.19299	
7.18994	
7.18689	
7.19147	
7.19757	
7.19604	
7.19757	
7.18536	
7.18994	
7.18994	
7.18842	
7.19604	
7.19604	
7.20215	
7.19147	
7.19757	
7.19299	
7.19604	
7.2052	
7.20673	
7.20367	
7.19452	
7.19757	
7.19604	
7.19604	
7.18842	
7.18842	
7.19147	
7.18842	
7.18994	
7.19452	
7.19299	
7.19604	
7.19604	
7.19604	
7.19604	
7.19147	
7.19147	
7.19147	
7.19452	
7.19604	
7.19604	
7.18842	
7.18689	
7.18994	
7.19757	
7.19757	
7.19299	
7.19299	
7.19299	
7.19757	
7.19757	
7.1991	
7.19757	
7.19147	
7.19604	
7.19299	
7.19299	
7.18994	
7.19147	
7.18384	
7.18689	
7.18536	
7.19147	
7.20062	
7.19299	
7.19147	
7.18842	
7.1991	
7.20062	
7.19452	
7.18689	
7.18994	
7.19299	
7.18842	
7.18689	
7.18994	
7.19147	
7.19299	
7.19452	
7.18842	
7.18994	
7.19452	
7.19299	
7.18994	
7.1991	
7.18994	
7.19299	
7.18536	
7.19147	
7.18994	
7.19604	
7.18994	
7.18994	
7.18536	
7.18689	
7.19299	
7.18689	
7.18842	
7.18842	
7.19147	
7.19147	
7.19604	
7.20062	
7.20062	
7.19452	
7.19757	
7.19147	
7.19604	
7.19452	
7.18994	
7.19757	
7.18994	
7.19452	
7.18689	
7.19452	
7.18994	
7.20215	
7.1991	
7.19757	
7.19452	
7.19299	
7.19299	
7.19452	
7.18689	
7.18536	
7.17926	
7.18842	
7.21283	
7.21283	
7.20367	
7.20062	
7.20215	
7.20062	
7.19757	
7.20215	
7.19147	
7.18994	
7.19147	
7.19452	
7.18994	
7.20215	
7.1991	
7.19299	
7.1991	
7.19299	
7.19757	
7.18994	
7.18536	
7.18536	
7.19299	
7.19299	
7.18842	
7.18842	
7.1991	
7.20062	
7.1991	
7.19299	
7.19604	
7.19604	
7.19299	
7.20825	
7.20062	
7.2052	
7.19604	
7.20367	
7.20062	
7.2052	
7.20215	
7.20215	
7.1991	
7.19757	
7.19757	
7.1991	
7.2052	
7.1991	
7.19147	
7.18536	
7.1991	
7.19757	
7.19452	
7.18689	
7.19147	
7.19452	
7.1991	
7.20367	
7.19757	
7.1991	
7.19604	
7.20062	
7.20367	
7.20367	
7.1991	
7.19757	
7.20062	
7.20215	
7.20215	
7.19757	
7.19452	
7.19604	
7.20062	
7.20215	
7.19604	
7.20062	
7.1991	
7.20215	
7.20062	
7.19452	
7.19757	
7.19757	
7.19757	
7.20062	
7.19757	
7.20062	
7.19604	
7.19757	
7.19757	
7.19299	
7.19757	
7.19757	
7.19757	
7.19757	
7.20215	
7.20215	
7.2052	
7.20062	
7.1991	
7.1991	
7.2052	
7.20673	
7.20215	
7.20367	
7.2052	
7.20825	
7.20367	
7.21283	
7.20215	
7.20673	
7.20215	
7.1991	
7.20062	
7.20062	
7.20215	
7.19452	
7.20062	
7.2052	
7.2113	
7.20062	
7.20062	
7.20215	
7.20367	
7.19757	
7.19604	
7.18842	
7.18842	
7.21283	
7.22046	
7.20673	
7.2113	
7.20978	
7.20673	
7.21283	
7.21588	
7.21588	
7.20673	
7.20978	
7.2052	
7.20825	
7.20978	
7.20062	
7.19757	
7.19604	
7.2052	
7.20215	
7.2052	
7.1991	
7.20367	
7.2052	
7.20215	
7.20673	
7.20367	
7.20215	
7.20978	
7.20978	
7.20673	
7.21588	
7.20673	
7.2052	
7.20825	
7.2113	
7.2113	
7.2113	
7.20367	
7.2052	
7.20825	
7.20825	
7.2052	
7.20062	
7.20367	
7.20673	
7.21283	
7.2113	
7.20825	
7.20673	
7.20062	
7.2052	
7.20825	
7.20367	
7.20367	
7.20978	
7.20673	
7.21588	
7.21588	
7.21283	
7.20825	
7.21283	
7.2113	
7.21588	
7.2113	
7.2113	
7.2113	
7.2052	
7.20825	
7.2052	
7.20215	
7.18842	
7.19604	
7.20215	
7.20978	
7.21893	
7.2113	
7.20978	
7.20978	
7.20673	
7.20367	
7.20367	
7.20062	
7.19757	
7.19604	
7.20978	
7.20978	
7.2113	
7.20673	
7.20367	
7.20673	
7.20367	
7.21283	
7.2052	
7.20825	
7.20673	
7.21741	
7.2113	
7.22046	
7.21893	
7.20978	
7.20978	
7.20215	
7.19604	
7.18994	
7.20367	
7.20825	
7.21588	
7.20825	
7.21588	
7.2113	
7.21283	
7.20673	
7.21588	
7.20825	
7.2113	
7.21283	
7.20978	
7.2113	
7.2113	
7.20978	
7.20825	
7.2113	
7.20367	
7.20673	
7.20825	
7.20673	
7.2052	
7.2052	
7.2113	
7.2052	
7.20978	
7.20673	
7.20825	
7.20367	
7.2113	
7.20978	
7.21283	
7.20673	
7.20825	
7.2113	
7.21588	
7.21741	
7.2052	
7.20673	
7.2052	
7.21588	
7.21588	
7.21283	
7.2113	
7.2113	
7.21283	
7.2113	
7.20825	
7.20673	
7.20673	
7.20062	
7.21588	
7.20673	
7.20673	
7.20978	
7.21283	
7.2052	
7.21588	
7.20978	
7.2113	
7.20978	
7.20673	
7.2113	
7.21893	
7.21893	
7.21588	
7.21893	
7.2113	
7.2113	
7.2113	
7.2113	
7.2113	
7.20062	
7.20367	
7.20673	
7.21741	
7.20367	
7.20825	
7.20367	
7.20673	
7.2113	
7.20673	
7.20215	
7.20215	
7.2052	
7.20673	
7.20673	
7.20062	
7.20215	
7.20215	
7.21283	
7.22656	
7.21893	
7.21741	
7.21893	
7.21741	
7.21893	
7.20673	
7.20673	
7.2052	
7.20062	
7.2052	
7.20062	
7.20367	
7.20673	
7.2113	
7.20215	
7.20673	
7.20825	
7.20978	
7.2113	
7.20825	
7.2113	
7.21741	
7.22046	
7.20825	
7.20825	
7.2113	
7.21741	
7.21741	
7.21283	
7.2113	
7.21283	
7.22046	
7.21741	
7.22046	
7.21741	
7.22046	
7.21741	
7.22504	
7.22351	
7.22198	
7.21741	
7.21283	
7.21283	
7.20825	
7.2113	
7.20673	
7.22351	
7.2113	
7.21893	
7.21893	
7.21741	
7.21741	
7.21283	
7.21741	
7.22046	
7.21893	
7.20978	
7.21588	
7.20978	
7.22198	
7.22504	
7.22046	
7.21588	
7.21893	
7.21588	
7.22046	
7.21741	
7.21741	
7.21893	
7.21283	
7.21741	
7.21588	
7.2113	
7.2113	
7.21283	
7.2113	
7.21741	
7.21893	
7.21283	
7.21588	
7.21741	
7.22046	
7.21893	
7.22046	
7.21283	
7.21741	
7.21283	
7.21893	
7.21588	
7.21893	
7.21588	
7.21588	
7.21893	
7.21893	
7.21893	
7.2113	
7.21283	
7.21283	
7.22504	
7.22198	
7.22046	
7.21283	
7.2113	
7.20978	
7.2113	
7.21741	
7.21283	
7.21588	
7.2113	
7.21893	
7.21893	
7.21741	
7.20978	
7.21741	
7.21283	
7.21588	
7.21741	
7.2113	
7.21893	
7.2113	
7.21741	
7.21283	
7.22046	
7.22504	
7.21893	
7.21741	
7.21283	
7.21741	
7.22504	
7.22351	
7.22504	
7.22504	
7.21741	
7.21893	
7.22351	
7.22656	
7.21893	
7.21741	
7.20978	
7.22198	
7.22504	
7.22046	
7.21893	
7.22046	
7.22504	
7.21741	
7.21741	
7.21588	
7.22351	
7.22351	
7.21741	
7.22046	
7.22046	
7.22046	
7.21893	
7.22504	
7.22198	
7.22504	
7.22198	
7.22656	
7.22046	
7.22351	
7.21893	
7.22504	
7.22046	
7.22198	
7.22198	
7.21741	
7.22351	
7.21741	
7.22198	
7.22198	
7.22656	
7.21893	
7.21893	
7.22504	
7.22656	
7.22351	
7.22046	
7.21893	
7.22198	
7.22351	
7.21741	
7.22351	
7.21588	
7.21588	
7.21588	
7.21741	
7.21893	
7.22351	
7.22046	
7.21893	
7.21893	
7.21741	
7.22656	
7.21588	
7.22046	
7.21588	
7.22351	
7.21893	
7.21893	
7.21741	
7.22046	
7.22961	
7.22198	
7.22351	
7.22809	
7.23419	
7.22961	
7.22656	
7.22198	
7.22046	
7.21588	
7.20215	
7.20062	
7.22504	
7.24945	
7.23724	
7.22809	
7.21741	
7.22351	
7.23419	
7.23419	
7.22504	
7.22504	
7.22504	
7.22046	
7.22351	
7.21588	
7.22351	
7.22656	
7.22961	
7.22961	
7.23267	
7.22656	
7.22809	
7.22198	
7.22961	
7.22961	
7.23114	
7.22809	
7.22656	
7.23267	
7.23114	
7.23267	
7.22046	
7.21588	
7.21283	
7.22961	
7.23419	
7.22656	
7.22809	
7.22504	
7.22351	
7.22961	
7.22961	
7.22504	
7.22351	
7.22198	
7.22809	
7.22504	
7.22351	
7.22198	
7.22198	
7.22351	
7.22656	
7.22961	
7.22961	
7.23267	
7.22961	
7.23114	
7.22809	
7.23267	
7.22046	
7.22351	
7.22198	
7.22809	
7.22961	
7.22504	
7.22656	
7.22961	
7.23419	
7.23267	
7.23419	
7.23267	
7.22656	
7.22351	
7.22809	
7.23267	
7.23572	
7.23267	
7.22961	
7.23572	
7.23114	
7.23877	
7.22961	
7.23114	
7.22809	
7.22809	
7.22351	
7.22198	
7.22504	
7.23724	
7.23114	
7.22809	
7.22961	
7.22809	
7.22656	
7.22046	
7.23114	
7.22656	
7.22656	
7.22351	
7.22351	
7.22656	
7.23267	
7.23419	
7.23114	
7.23114	
7.22656	
7.22961	
7.22809	
7.23114	
7.22504	
7.22351	
7.22351	
7.22656	
7.22656	
7.22351	
7.22656	
7.22198	
7.22198	
7.22351	
7.23114	
7.23114	
7.22656	
7.22198	
7.23114	
7.23114	
7.23419	
7.22809	
7.22961	
7.23419	
7.22961	
7.22961	
7.22046	
7.21741	
7.21283	
7.22351	
7.22656	
7.22351	
7.22351	
7.22351	
7.22198	
7.22504	
7.22809	
7.22198	
7.22198	
7.22046	
7.22504	
7.22351	
7.22504	
7.22198	
7.22351	
7.21588	
7.2113	
7.2113	
7.21893	
7.21741	
7.20673	
7.20978	
7.21283	
7.22198	
7.21283	
7.21741	
7.21741	
7.21741	
7.21741	
7.22046	
7.22046	
7.22046	
7.22198	
7.21893	
7.22046	
7.2113	
7.21588	
7.2113	
7.21893	
7.22504	
7.22809	
7.22198	
7.22046	
7.21741	
7.20825	
7.20673	
7.1991	
7.2052	
7.22198	
7.24182	
7.23267	
7.22351	
7.22046	
7.22046	
7.22198	
7.22656	
7.22809	
7.22198	
7.22504	
7.22046	
7.22656	
7.22198	
7.22504	
7.22046	
7.22351	
7.22046	
7.22656	
7.22504	
7.22351	
7.22961	
7.22351	
7.22656	
7.22504	
7.22961	
7.22198	
7.22656	
7.22351	
7.22504	
7.22351	
7.22351	
7.22809	
7.22351	
7.22809	
7.22961	
7.23114	
7.22504	
7.22809	
7.22504	
7.22656	
7.22351	
7.21741	
7.21283	
7.2113	
7.22198	
7.22504	
7.2403	
7.23572	
7.23267	
7.22504	
7.23419	
7.23419	
7.23114	
7.23114	
7.23114	
7.22961	
7.23419	
7.23877	
7.23419	
7.23572	
7.23114	
7.23572	
7.23724	
7.23114	
7.22961	
7.23114	
7.22809	
7.22961	
7.23724	
7.2403	
7.23267	
7.22351	
7.23114	
7.22351	
7.22198	
7.21893	
7.22656	
7.22809	
7.22656	
7.22809	
7.22351	
7.22809	
7.22961	
7.22961	
7.22809	
7.23419	
7.22961	
7.23267	
7.23267	
7.23877	
7.23724	
7.23419	
7.22809	
7.22504	
7.22198	
7.20978	
7.2525	
7.2464	
7.24182	
7.23877	
7.24182	
7.23877	
7.2403	
7.23724	
7.23114	
7.22504	
7.22504	
7.23419	
7.2403	
7.23419	
7.22961	
7.23419	
7.23419	
7.23724	
7.23572	
7.23724	
7.23419	
7.23724	
7.23572	
7.23572	
7.23877	
7.23419	
7.23877	
7.23114	
7.23419	
7.22961	
7.23114	
7.23114	
7.23114	
7.23572	
7.23877	
7.23572	
7.23267	
7.23724	
7.23877	
7.23724	
7.23724	
7.23724	
7.24335	
7.24182	
7.2403	
7.24182	
7.24182	
7.23877	
7.2403	
7.24182	
7.24335	
7.2403	
7.23724	
7.23572	
7.24182	
7.23419	
7.23114	
7.23267	
7.22961	
7.22809	
7.23114	
7.23877	
7.23114	
7.23572	
7.23114	
7.23419	
7.23419	
7.23419	
7.22961	
7.23114	
7.22961	
7.23572	
7.22961	
7.22656	
7.23572	
7.24335	
7.2403	
7.23572	
7.23877	
7.23114	
7.23114	
7.23877	
7.23572	
7.23267	
7.22961	
7.22504	
7.22046	
7.22656	
7.21893	
7.22656	
7.24792	
7.2525	
7.2403	
7.23572	
7.23267	
7.23877	
7.23724	
7.23572	
7.23877	
7.23572	
7.24792	
7.2403	
7.2403	
7.23114	
7.24182	
7.2403	
7.23419	
7.23877	
7.23724	
7.23724	
7.2403	
7.24182	
7.23572	
7.23877	
7.23724	
7.24182	
7.24335	
7.24792	
7.24182	
7.24335	
7.2403	
7.24335	
7.24335	
7.23877	
7.23877	
7.23724	
7.2403	
7.23267	
7.23419	
7.23877	
7.23877	
7.2464	
7.24182	
7.2464	
7.24792	
7.24335	
7.24182	
7.24945	
7.24792	
7.2464	
7.2464	
7.24182	
7.2403	
7.23877	
7.23419	
7.23114	
7.24792	
7.2403	
7.23877	
7.24945	
7.25708	
7.2525	
7.24335	
7.2403	
7.25098	
7.2525	
7.24792	
7.24335	
7.2464	
7.2525	
7.25098	
7.25555	
7.25098	
7.24792	
7.2464	
7.24335	
7.2403	
7.24792	
7.25098	
7.25403	
7.25403	
7.25403	
7.25403	
7.24945	
7.24792	
7.23724	
7.2464	
7.24945	
7.2464	
7.23877	
7.24792	
7.25555	
7.25708	
7.2525	
7.24792	
7.24945	
7.24945	
7.2403	
7.23419	
7.23419	
7.24182	
7.26166	
7.26013	
7.26013	
7.26471	
7.27081	
7.26929	
7.27844	
7.28455	
7.27692	
7.27997	
7.26013	
7.25708	
7.2464	
7.24335	
7.23877	
7.22656	
7.23114	
7.23267	
7.23114	
7.23114	
7.23877	
7.2464	
7.24945	
7.24792	
7.24335	
7.24792	
7.24335	
7.2403	
7.24182	
7.2464	
7.2525	
7.26013	
7.24792	
7.24945	
7.24335	
7.24792	
7.2464	
7.2525	
7.25098	
7.24792	
7.24945	
7.25403	
7.25403	
7.2525	
7.2525	
7.25555	
7.25861	
7.25861	
7.25555	
7.25098	
7.2525	
7.24335	
7.24792	
7.24335	
7.24335	
7.24335	
7.24792	
7.24792	
7.2464	
7.25098	
7.2464	
7.24792	
7.23877	
7.2525	
7.25403	
7.24945	
7.26013	
7.26013	
7.25403	
7.24792	
7.25098	
7.25403	
7.25555	
7.24792	
7.2525	
7.24945	
7.24792	
7.24792	
7.24945	
7.24792	
7.2464	
7.24792	
7.24335	
7.24182	
7.23724	
7.2403	
7.2403	
7.26929	
7.26624	
7.25708	
7.25708	
7.25403	
7.2525	
7.24792	
7.24945	
7.25098	
7.25403	
7.25403	
7.2525	
7.25098	
7.2525	
7.24945	
7.25403	
7.24792	
7.24945	
7.2525	
7.24792	
7.25403	
7.25403	
7.26013	
7.2464	
7.25403	
7.25098	
7.25708	
7.2525	
7.25098	
7.24945	
7.2403	
7.2525	
7.25555	
7.26013	
7.2464	
7.24335	
7.2464	
7.25098	
7.24792	
7.25555	
7.24945	
7.2525	
7.2464	
7.2525	
7.24945	
7.25403	
7.25098	
7.2464	
7.24792	
7.24792	
7.2525	
7.2464	
7.24792	
7.25098	
7.24792	
7.2525	
7.2525	
7.25708	
7.24792	
7.25403	
7.25861	
7.25098	
7.2525	
7.24945	
7.2464	
7.24792	
7.23877	
7.23877	
7.24335	
7.2464	
7.24945	
7.25098	
7.25708	
7.25403	
7.25098	
7.2525	
7.25708	
7.25861	
7.25555	
7.2525	
7.25098	
7.25555	
7.25708	
7.25555	
7.24945	
7.2525	
7.2525	
7.25861	
7.25861	
7.2525	
7.24945	
7.2525	
7.25555	
7.25403	
7.25555	
7.2525	
7.25555	
7.25098	
7.2525	
7.25403	
7.2525	
7.24945	
7.24182	
7.24792	
7.25098	
7.24792	
7.24182	
7.25861	
7.26166	
7.25708	
7.25098	
7.2464	
7.24182	
7.24945	
7.25098	
7.24792	
7.24945	
7.25098	
7.25098	
7.24335	
7.25098	
7.25403	
7.25555	
7.24335	
7.24182	
7.2464	
7.25403	
7.24945	
7.2464	
7.23877	
7.23267	
7.2403	
7.2464	
7.24182	
7.2464	
7.2464	
7.2464	
7.24945	
7.2403	
7.23724	
7.2403	
7.24792	
7.2464	
7.2525	
7.25555	
7.25403	
7.26013	
7.25708	
7.27081	
7.28607	
7.27844	
7.26318	
7.25403	
7.25708	
7.25861	
7.25098	
7.23267	
7.22961	
7.21893	
7.22351	
7.23572	
7.2403	
7.24182	
7.24335	
7.24182	
7.25098	
7.24792	
7.2525	
7.24945	
7.23724	
7.25098	
7.25098	
7.24945	
7.24182	
7.24182	
7.23877	
7.2525	
7.24945	
7.24182	
7.23877	
7.23419	
7.23724	
7.23877	
7.2464	
7.24335	
7.24182	
7.24182	
7.2464	
7.2403	
7.24335	
7.24182	
7.24792	
7.23724	
7.23877	
7.25861	
7.24335	
7.2464	
7.25098	
7.2525	
7.2525	
7.2525	
7.24792	
7.24945	
7.2464	
7.24335	
7.24792	
7.23724	
7.24182	
7.23572	
7.24335	
7.24792	
7.2464	
7.23877	
7.24945	
7.24335	
7.2464	
7.24945	
7.24945	
7.2464	
7.2403	
7.24182	
7.24335	
7.25098	
7.24335	
7.2403	
7.24792	
7.24945	
7.24792	
7.24335	
7.24335	
7.2403	
7.2464	
7.2525	
7.24792	
7.2403	
7.2403	
7.23877	
7.24335	
7.2464	
7.2464	
7.24335	
7.24792	
7.2464	
7.2464	
7.25098	
7.24182	
7.2464	
7.2403	
7.24792	
7.24182	
7.24335	
7.24792	
7.24335	
7.24792	
7.2464	
7.24945	
7.24182	
7.24335	
7.23572	
7.2403	
7.24182	
7.24335	
7.24335	
7.24792	
7.24182	
7.24792	
7.24335	
7.2403	
7.24335	
7.23877	
7.24335	
7.2403	
7.24792	
7.23724	
7.23572	
7.2403	
7.24792	
7.24335	
7.24335	
7.2403	
7.23114	
7.23572	
7.23572	
7.23572	
7.23572	
7.25098	
7.24945	
7.25555	
7.24945	
7.2525	
7.24945	
7.25403	
7.2525	
7.24945	
7.25098	
7.25098	
7.25098	
7.24945	
7.25098	
7.24792	
7.2464	
7.24182	
7.23877	
7.23877	
7.23114	
7.23114	
7.22809	
7.25403	
7.25555	
7.2464	
7.24792	
7.25708	
7.25708	
7.24792	
7.24792	
7.25403	
7.2525	
7.2525	
7.24945	
7.2464	
7.25098	
7.24792	
7.25098	
7.23724	
7.24182	
7.23572	
7.24945	
7.2464	
7.2464	
7.23877	
7.23724	
7.24945	
7.2464	
7.24945	
7.24792	
7.2403	
7.24182	
7.24335	
7.23877	
7.24335	
7.24182	
7.24792	
7.2464	
7.24792	
7.25861	
7.24945	
7.24945	
7.24335	
7.25555	
7.2464	
7.24182	
7.24335	
7.23877	
7.23267	
7.23114	
7.23419	
7.24335	
7.2525	
7.24792	
7.24945	
7.25098	
7.25098	
7.24182	
7.24945	
7.2464	
7.24182	
7.23877	
7.2464	
7.25098	
7.2403	
7.24945	
7.24182	
7.25555	
7.2525	
7.24945	
7.24792	
7.2525	
7.2464	
7.2464	
7.24945	
7.2403	
7.24335	
7.24335	
7.24335	
7.2403	
7.23114	
7.24182	
7.24792	
7.2464	
7.25403	
7.2464	
7.24792	
7.24945	
7.24182	
7.2525	
7.25403	
7.2525	
7.24792	
7.2525	
7.25098	
7.24945	
7.24792	
7.2464	
7.25098	
7.24182	
7.24792	
7.24182	
7.24792	
7.2464	
7.24792	
7.25098	
7.2525	
7.24945	
7.2525	
7.24792	
7.24945	
7.2464	
7.24335	
7.23724	
7.23419	
7.24182	
7.24182	
7.24792	
7.24182	
7.24335	
7.2464	
7.2525	
7.25403	
7.24945	
7.25403	
7.24945	
7.25098	
7.2464	
7.23724	
7.23572	
7.24792	
7.25098	
7.25098	
7.2464	
7.25098	
7.24792	
7.2464	
7.2525	
7.2464	
7.2525	
7.24182	
7.23724	
7.23267	
7.25708	
7.25708	
7.24792	
7.2525	
7.25708	
7.24945	
7.24792	
7.25403	
7.2464	
7.2525	
7.24792	
7.25555	
7.24945	
7.24945	
7.2464	
7.2464	
7.2464	
7.2464	
7.24335	
7.24945	
7.25708	
7.24182	
7.2464	
7.24335	
7.25555	
7.24945	
7.24945	
7.25555	
7.26166	
7.25708	
7.25555	
7.2525	
7.2525	
7.25098	
7.2525	
7.25098	
7.2464	
7.24792	
7.24945	
7.25555	
7.25708	
7.24945	
7.2464	
7.25403	
7.24792	
7.24945	
7.25403	
7.2464	
7.25098	
7.2464	
7.24945	
7.2525	
7.25098	
7.24945	
7.24945	
7.2525	
7.24335	
7.24945	
7.23572	
7.23724	
7.23877	
7.24335	
7.24182	
7.24335	
7.23877	
7.24335	
7.24335	
7.2525	
7.25098	
7.2525	
7.25098	
7.2464	
7.2525	
7.24335	
7.2403	
7.23572	
7.2403	
7.24182	
7.24945	
7.24792	
7.24182	
7.24335	
7.24182	
7.24792	
7.25098	
7.2525	
7.24792	
7.24945	
7.24792	
7.24945	
7.24182	
7.24335	
7.23572	
7.2403	
7.23724	
7.2464	
7.2525	
7.24335	
7.24335	
7.23419	
7.2403	
7.25403	
7.25403	
7.24945	
7.24945	
7.2525	
7.24792	
7.24335	
7.2403	
7.23877	
7.25403	
7.25861	
7.25708	
7.25555	
7.2525	
7.24335	
7.23877	
7.24182	
7.23877	
7.24335	
7.2403	
7.25098	
7.25708	
7.25098	
7.2525	
7.24335	
7.2464	
7.24335	
7.24335	
7.24792	
7.2403	
7.23877	
7.2403	
7.24335	
7.24335	
7.24792	
7.24792	
7.2464	
7.2464	
7.2525	
7.24792	
7.24945	
7.23572	
7.24182	
7.24182	
7.2403	
7.24335	
7.23572	
7.23419	
7.23114	
7.23419	
7.23267	
7.22656	
7.22809	
7.23114	
7.23724	
7.23114	
7.23572	
7.23267	
7.23267	
7.23114	
7.23419	
7.23114	
7.23419	
7.23114	
7.23572	
7.23724	
7.2403	
7.23419	
7.2403	
7.2403	
7.23724	
7.2464	
7.24335	
7.25098	
7.23877	
7.23267	
7.23724	
7.24335	
7.24182	
7.23267	
7.23267	
7.22504	
7.2403	
7.24182	
7.23877	
7.23114	
7.2403	
7.24182	
7.24792	
7.2464	
7.2464	
7.2464	
7.25403	
7.2525	
7.24335	
7.23877	
7.22961	
7.23419	
7.25098	
7.25403	
7.25098	
7.25403	
7.24945	
7.24335	
7.24792	
7.2464	
7.24945	
7.2464	
7.2464	
7.23572	
7.24335	
7.23724	
7.23724	
7.23877	
7.24182	
7.2464	
7.24792	
7.2403	
7.24182	
7.2464	
7.24182	
7.2403	
7.23877	
7.2464	
7.23267	
7.23114	
7.2403	
7.26318	
7.25555	
7.24945	
7.2464	
7.24335	
7.24945	
7.24792	
7.24182	
7.23724	
7.24182	
7.2403	
7.24182	
7.24182	
7.24335	
7.24182	
7.2464	
7.2403	
7.23877	
7.24335	
7.23877	
7.24335	
7.2403	
7.2403	
7.24945	
7.24792	
7.24792	
7.2464	
7.24792	
7.24792	
7.25403	
7.23877	
7.23419	
7.23419	
7.23572	
7.23114	
7.23572	
7.2525	
7.2525	
7.24182	
7.24792	
7.2403	
7.24335	
7.24335	
7.23267	
7.24182	
7.24182	
7.23724	
7.23267	
7.2464	
7.24945	
7.2464	
7.24945	
7.2403	
7.2403	
7.23877	
7.25098	
7.24335	
7.2464	
7.24182	
7.24335	
7.24335	
7.24335	
7.24945	
7.24182	
7.23572	
7.2403	
7.23724	
7.2403	
7.24945	
7.2464	
7.24335	
7.2464	
7.24945	
7.24945	
7.2464	
7.23877	
7.23572	
7.23114	
7.23724	
7.24335	
7.23724	
7.23724	
7.23419	
7.24182	
7.23724	
7.23877	
7.23877	
7.23572	
7.23877	
7.2403	
7.23877	
7.2403	
7.23877	
7.23419	
7.23877	
7.23419	
7.23572	
7.22961	
7.2464	
7.24182	
7.2464	
7.2464	
7.23877	
7.24335	
7.23419	
7.2403	
7.2403	
7.2403	
7.23267	
7.23114	
7.23724	
7.24335	
7.24182	
7.2403	
7.23572	
7.24335	
7.24335	
7.2464	
7.2464	
7.2403	
7.23877	
7.23419	
7.23572	
7.2403	
7.23877	
7.23419	
7.23572	
7.23724	
7.24335	
7.2464	
7.23572	
7.23724	
7.23724	
7.2525	
7.2464	
7.2464	
7.2403	
7.23877	
7.24182	
7.24335	
7.23877	
7.24182	
7.2464	
7.2403	
7.24182	
7.24182	
7.2464	
7.23877	
7.2403	
7.23877	
7.23877	
7.2403	
7.23877	
7.2403	
7.23724	
7.23572	
7.23419	
7.23267	
7.23572	
7.23877	
7.23724	
7.24182	
7.23877	
7.23724	
7.23724	
7.24182	
7.2464	
7.24335	
7.24945	
7.24182	
7.2403	
7.2403	
7.24182	
7.23724	
7.23724	
7.22809	
7.22961	
7.24182	
7.24335	
7.2464	
7.2403	
7.2464	
7.24182	
7.25098	
7.2464	
7.24945	
7.24182	
7.2403	
7.23419	
7.23267	
7.22961	
7.23724	
7.23877	
7.23572	
7.23877	
7.23572	
7.23724	
7.23114	
7.23724	
7.24182	
7.24945	
7.24792	
7.24182	
7.24335	
7.23724	
7.24335	
7.2403	
7.24182	
7.2403	
7.23419	
7.23877	
7.24182	
7.24792	
7.2525	
7.24335	
7.2464	
7.2403	
7.24182	
7.24945	
7.23267	
7.22809	
7.23114	
7.24792	
7.24335	
7.24792	
7.25098	
7.24792	
7.2403	
7.23572	
7.23724	
7.22198	
7.22046	
7.20978	
7.24182	
7.25708	
7.24945	
7.24335	
7.2464	
7.24335	
7.23877	
7.23114	
7.23267	
7.23572	
7.22809	
7.24182	
7.23572	
7.23724	
7.23724	
7.23572	
7.22961	
7.23419	
7.23419	
7.22961	
7.22809	
7.23572	
7.2403	
7.23724	
7.23877	
7.23114	
7.23267	
7.23419	
7.23419	
7.2403	
7.23724	
7.23572	
7.23419	
7.23267	
7.22961	
7.23267	
7.22961	
7.22656	
7.22351	
7.22504	
7.22656	
7.23877	
7.22961	
7.22961	
7.23572	
7.22809	
7.23877	
7.23114	
7.22961	
7.22961	
7.23724	
7.23267	
7.22961	
7.22961	
7.22809	
7.22504	
7.22809	
7.22198	
7.22961	
7.23267	
7.22961	
7.23267	
7.23114	
7.23267	
7.23419	
7.23419	
7.22961	
7.23419	
7.22961	
7.22504	
7.23419	
7.22961	
7.22656	
7.22198	
7.22198	
7.22504	
7.22656	
7.22961	
7.22961	
7.23419	
7.23114	
7.22809	
7.23267	
7.23267	
7.22656	
7.22809	
7.22046	
7.22198	
7.23419	
7.22656	
7.22198	
7.22809	
7.22351	
7.22656	
7.22809	
7.22656	
7.23419	
7.22656	
7.23114	
7.22504	
7.22961	
7.22809	
7.22656	
7.22504	
7.22046	
7.22198	
7.22504	
7.22046	
7.21893	
7.22046	
7.22198	
7.22198	
7.21893	
7.21893	
7.22046	
7.22504	
7.22046	
7.22198	
7.22656	
7.22504	
7.22809	
7.22198	
7.22504	
7.22046	
7.21741	
7.20673	
7.21741	
7.23114	
7.22504	
7.22351	
7.21893	
7.21893	
7.22198	
7.22656	
7.22351	
7.22504	
7.21741	
7.22504	
7.22198	
7.22351	
7.21893	
7.22656	
7.22198	
7.22046	
7.21893	
7.21741	
7.22656	
7.22504	
7.22198	
7.21283	
7.21893	
7.22351	
7.21893	
7.22046	
7.22046	
7.21893	
7.22198	
7.21893	
7.21283	
7.2113	
7.20978	
7.22198	
7.21893	
7.22046	
7.21588	
7.21283	
7.20978	
7.22046	
7.21588	
7.21283	
7.21893	
7.21283	
7.22504	
7.21741	
7.22046	
7.21588	
7.22198	
7.22351	
7.22198	
7.21893	
7.2113	
7.21588	
7.21588	
7.21741	
7.21283	
7.21741	
7.2113	
7.21283	
7.20825	
7.21283	
7.21588	
7.22504	
7.22351	
7.22504	
7.22046	
7.21893	
7.22656	
7.21893	
7.21741	
7.21283	
7.22656	
7.22198	
7.20978	
7.21741	
7.20978	
7.20673	
7.2113	
7.20978	
7.2052	
7.20978	
7.2052	
7.2113	
7.20978	
7.22351	
7.21588	
7.21283	
7.21741	
7.22656	
7.21893	
7.21588	
7.21893	
7.20978	
7.20673	
7.20215	
7.2113	
7.21893	
7.21741	
7.21741	
7.21741	
7.21283	
7.21893	
7.21741	
7.21893	
7.21893	
7.21741	
7.21893	
7.20825	
7.20215	
7.20673	
7.20978	
7.20978	
7.21283	
7.20825	
7.2113	
7.21588	
7.20825	
7.21283	
7.20367	
7.2113	
7.20215	
7.20825	
7.20367	
7.20367	
7.20367	
7.20825	
7.20825	
7.20978	
7.20978	
7.20978	
7.2113	
7.20978	
7.21588	
7.20978	
7.20825	
7.2052	
7.20367	
7.20825	
7.20673	
7.20825	
7.20673	
7.20673	
7.20367	
7.2052	
7.20367	
7.20215	
7.19757	
7.2052	
7.20825	
7.22198	
7.21588	
7.2052	
7.20978	
7.20825	
7.22046	
7.21893	
7.20825	
7.20367	
7.20673	
7.20673	
7.21283	
7.20978	
7.20978	
7.20367	
7.20978	
7.21893	
7.21588	
7.22046	
7.20825	
7.21588	
7.2052	
7.21283	
7.20367	
7.2052	
7.20215	
7.19757	
7.20367	
7.20673	
7.20673	
7.2052	
7.1991	
7.1991	
7.20215	
7.20673	
7.20367	
7.19757	
7.20215	
7.20367	
7.2052	
7.20367	
7.1991	
7.2052	
7.20062	
7.20978	
7.20978	
7.21283	
7.20673	
7.20825	
7.20825	
7.2052	
7.20673	
7.20825	
7.1991	
7.2052	
7.20215	
7.2052	
7.2052	
7.20367	
7.20062	
7.19757	
7.20062	
7.20367	
7.20825	
7.2113	
7.21283	
7.21588	
7.20825	
7.21283	
7.2052	
7.20673	
7.20367	
7.20825	
7.20825	
7.20978	
7.20978	
7.20978	
7.20367	
7.20978	
7.20978	
7.20215	
7.20215	
7.19757	
7.20215	
7.2052	
7.20062	
7.2052	
7.20367	
7.20062	
7.2052	
7.20215	
7.20673	
7.2052	
7.19452	
7.20367	
7.21283	
7.22351	
7.20978	
7.20825	
7.20978	
7.20825	
7.20367	
7.20215	
7.20367	
7.20367	
7.20825	
7.2052	
7.2113	
7.20215	
7.20215	
7.20367	
7.20673	
7.2052	
7.20367	
7.20367	
7.21893	
7.22504	
7.21741	
7.22198	
7.20825	
7.21893	
7.20673	
7.21588	
7.21283	
7.21283	
7.20978	
7.20825	
7.20978	
7.21741	
7.21741	
7.20978	
7.20825	
7.20978	
7.20215	
7.20215	
7.20978	
7.20673	
7.20215	
7.20367	
7.20673	
7.20673	
7.20825	
7.20673	
7.20367	
7.20825	
7.20978	
7.21588	
7.20367	
7.2052	
7.2052	
7.20673	
7.20367	
7.20367	
7.20215	
7.1991	
7.20673	
7.20825	
7.20825	
7.2052	
7.20825	
7.2052	
7.2052	
7.2052	
7.20062	
7.20062	
7.20215	
7.20673	
7.20673	
7.20825	
7.20062	
7.20367	
7.2052	
7.20978	
7.20825	
7.21588	
7.21283	
7.21283	
7.2113	
7.20978	
7.20673	
7.19757	
7.2052	
7.2052	
7.20825	
7.20825	
7.20673	
7.20215	
7.20825	
7.2113	
7.21588	
7.20978	
7.20825	
7.20367	
7.19757	
7.19757	
7.19147	
7.21588	
7.20215	
7.20215	
7.20215	
7.20673	
7.20062	
7.1991	
7.20825	
7.20673	
7.20978	
7.2052	
7.20673	
7.20673	
7.20978	
7.20978	
7.2113	
7.20825	
7.1991	
7.1991	
7.2052	
7.20215	
7.20367	
7.2052	
7.20062	
7.2113	
7.20673	
7.21283	
7.20825	
7.20215	
7.20673	
7.21283	
7.2113	
7.20978	
7.21283	
7.20215	
7.2052	
7.1991	
7.20215	
7.20367	
7.20367	
7.20215	
7.20367	
7.20215	
7.2052	
7.20978	
7.20825	
7.20978	
7.20367	
7.2052	
7.20367	
7.20825	
7.20062	
7.2052	
7.20673	
7.20978	
7.20825	
7.20062	
7.1991	
7.19452	
7.20062	
7.20215	
7.20062	
7.19604	
7.1991	
7.18994	
7.20062	
7.20367	
7.19604	
7.1991	
7.19147	
7.19147	
7.20062	
7.20215	
7.1991	
7.20062	
7.19757	
7.20673	
7.20062	
7.19757	
7.20215	
7.1991	
7.1991	
7.20215	
7.20367	
7.20062	
7.20062	
7.20367	
7.20367	
7.2052	
7.20825	
7.2052	
7.20825	
7.20673	
7.20978	
7.2113	
7.20673	
7.20978	
7.20367	
7.20978	
7.20978	
7.21893	
7.20367	
7.1991	
7.1991	
7.1991	
7.20673	
7.20825	
7.2052	
7.2052	
7.2052	
7.20978	
7.2113	
7.20673	
7.2052	
7.20367	
7.20367	
7.20825	
7.20367	
7.20367	
7.20215	
7.22046	
7.21893	
7.21741	
7.1991	
7.19452	
7.19299	
7.2052	
7.20673	
7.20673	
7.2052	
7.2113	
7.21283	
7.2052	
7.20978	
7.20673	
7.2113	
7.2113	
7.20978	
7.20978	
7.21283	
7.2113	
7.20978	
7.2052	
7.20825	
7.21741	
7.2113	
7.2113	
7.20367	
7.2052	
7.20215	
7.20825	
7.2052	
7.20367	
7.20673	
7.20825	
7.20673	
7.20673	
7.20367	
7.19757	
7.20367	
7.20673	
7.2052	
7.2052	
7.2052	
7.20367	
7.2052	
7.20978	
7.20215	
7.2052	
7.2052	
7.20978	
7.20367	
7.2052	
7.20215	
7.20367	
7.19604	
7.20978	
7.2052	
7.20825	
7.20367	
7.20215	
7.20825	
7.20825	
7.20673	
7.20215	
7.20825	
7.20367	
7.20062	
7.20367	
7.1991	
7.19604	
7.19299	
7.1991	
7.20062	
7.20367	
7.2052	
7.20367	
7.19604	
7.20825	
7.2113	
7.20825	
7.19147	
7.19299	
7.20367	
7.1991	
7.19604	
7.19452	
7.20062	
7.2052	
7.20367	
7.2052	
7.1991	
7.19604	
7.1991	
7.20062	
7.20978	
7.20367	
7.1991	
7.20367	
7.1991	
7.1991	
7.20062	
7.19757	
7.1991	
7.21588	
7.2113	
7.20673	
7.20215	
7.20215	
7.20825	
7.20673	
7.20673	
7.20825	
7.2113	
7.20367	
7.20215	
7.19604	
7.20062	
7.2052	
7.20062	
7.19757	
7.19604	
7.18536	
7.18384	
7.18689	
7.19147	
7.20825	
7.20062	
7.2052	
7.20367	
7.2052	
7.1991	
7.19757	
7.20062	
7.1991	
7.1991	
7.20215	
7.20215	
7.1991	
7.20215	
7.1991	
7.20215	
7.19299	
7.19604	
7.19604	
7.19299	
7.19757	
7.19604	
7.19452	
7.19147	
7.19604	
7.19757	
7.20367	
7.19147	
7.19757	
7.18842	
7.19299	
7.19757	
7.19299	
7.19452	
7.19604	
7.19299	
7.19299	
7.1991	
7.19604	
7.19604	
7.19299	
7.20215	
7.19757	
7.19757	
7.19452	
7.19452	
7.19147	
7.18842	
7.19452	
7.19299	
7.19147	
7.18842	
7.19604	
7.19452	
7.19452	
7.18994	
7.18384	
7.18994	
7.20062	
7.20673	
7.19604	
7.19757	
7.20062	
7.20367	
7.20367	
7.20062	
7.1991	
7.1991	
7.1991	
7.20215	
7.20062	
7.19757	
7.20215	
7.20062	
7.20215	
7.19757	
7.20215	
7.19757	
7.1991	
7.18842	
7.19452	
7.19452	
7.19757	
7.19604	
7.19452	
7.19604	
7.19452	
7.1991	
7.19147	
7.19299	
7.19147	
7.19604	
7.19757	
7.20062	
7.19299	
7.19147	
7.19299	
7.19757	
7.2052	
7.20215	
7.1991	
7.19604	
7.2052	
7.20367	
7.20978	
7.1991	
7.19452	
7.1991	
7.19604	
7.19147	
7.18536	
7.19452	
7.19147	
7.19757	
7.1991	
7.1991	
7.19757	
7.19757	
7.19757	
7.20367	
7.20062	
7.1991	
7.19452	
7.18536	
7.18994	
7.19452	
7.19604	
7.18689	
7.19452	
7.18994	
7.19757	
7.19299	
7.19604	
7.19757	
7.19299	
7.19452	
7.19452	
7.19604	
7.18842	
7.18994	
7.18994	
7.2052	
7.19299	
7.19147	
7.18994	
7.18689	
7.18994	
7.20673	
7.20215	
7.20215	
7.20215	
7.19604	
7.20673	
7.20215	
7.20673	
7.19452	
7.19452	
7.18994	
7.19299	
7.19299	
7.18536	
7.18384	
7.18689	
7.20978	
7.20673	
7.20215	
7.1991	
7.1991	
7.19147	
7.19757	
7.20062	
7.19299	
7.19452	
7.19452	
7.1991	
7.19757	
7.20367	
7.18994	
7.19452	
7.18994	
7.19757	
7.19299	
7.19452	
7.19147	
7.19604	
7.19757	
7.19604	
7.1991	
7.19604	
7.19299	
7.19757	
7.1991	
7.20062	
7.20062	
7.20062	
7.2052	
7.20978	
7.20673	
7.20978	
7.19757	
7.19604	
7.18994	
7.18994	
7.19147	
7.19757	
7.18994	
7.19604	
7.19757	
7.19757	
7.19604	
7.18994	
7.18994	
7.18994	
7.20215	
7.19452	
7.19757	
7.19299	
7.19299	
7.19147	
7.19604	
7.19452	
7.1991	
7.19299	
7.18536	
7.19299	
7.18994	
7.19757	
7.18994	
7.18842	
7.18536	
7.18842	
7.19604	
7.1991	
7.19452	
7.19604	
7.19452	
7.19757	
7.18994	
7.18842	
7.19604	
7.20825	
7.19604	
7.19299	
7.19299	
7.19452	
7.19452	
7.19452	
7.19147	
7.19452	
7.19299	
7.19452	
7.18536	
7.19452	
7.19147	
7.19147	
7.18842	
7.19147	
7.19452	
7.18994	
7.19452	
7.19452	
7.20062	
7.19299	
7.1991	
7.1991	
7.19757	
7.19147	
7.18994	
7.19147	
7.19757	
7.19604	
7.19757	
7.1991	
7.19299	
7.1991	
7.19604	
7.19604	
7.18994	
7.19299	
7.18994	
7.19757	
7.19604	
7.19452	
7.19147	
7.19299	
7.19452	
7.1991	
7.19604	
7.19147	
7.19452	
7.19452	
7.20062	
7.20367	
7.1991	
7.19299	
7.19604	
7.19299	
7.18994	
7.18842	
7.19757	
7.20673	
7.20825	
7.20978	
7.2052	
7.20978	
7.1991	
7.20062	
7.20215	
7.20215	
7.20215	
7.20062	
7.20215	
7.1991	
7.20062	
7.1991	
7.19299	
7.18994	
7.19299	
7.19604	
7.21283	
7.20062	
7.19604	
7.19757	
7.19299	
7.20367	
7.20215	
7.20367	
7.19299	
7.19757	
7.19147	
7.20062	
7.20062	
7.20215	
7.19452	
7.19452	
7.1991	
7.19757	
7.19757	
7.1991	
7.1991	
7.19757	
7.19452	
7.19147	
7.19604	
7.19604	
7.19299	
7.19757	
7.19757	
7.20367	
7.1991	
7.2052	
7.19452	
7.1991	
7.1991	
7.19757	
7.19452	
7.19299	
7.20215	
7.20062	
7.20062	
7.19452	
7.19147	
7.19604	
7.1991	
7.20215	
7.2052	
7.20062	
7.20825	
7.20978	
7.20367	
7.20062	
7.1991	
7.19452	
7.18994	
7.19757	
7.19604	
7.2052	
7.19604	
7.20062	
7.19757	
7.19757	
7.1991	
7.1991	
7.19299	
7.18994	
7.19147	
7.1991	
7.20673	
7.19299	
7.19299	
7.18689	
7.19299	
7.1991	
7.1991	
7.19757	
7.20062	
7.20062	
7.19757	
7.20215	
7.19147	
7.1991	
7.18842	
7.19757	
7.19757	
7.20215	
7.19147	
7.19452	
7.19757	
7.19147	
7.18842	
7.18842	
7.2052	
7.20673	
7.20673	
7.19757	
7.20367	
7.20062	
7.20062	
7.19757	
7.19604	
7.18842	
7.19147	
7.17773	
7.17316	
7.1991	
7.20673	
7.2052	
7.19604	
7.20062	
7.20062	
7.2052	
7.20062	
7.20062	
7.20215	
7.1991	
7.19604	
7.19757	
7.1991	
7.18994	
7.19299	
7.19452	
7.19299	
7.19452	
7.19757	
7.19452	
7.19757	
7.1991	
7.20062	
7.20673	
7.19757	
7.20215	
7.19604	
7.20062	
7.1991	
7.1991	
7.18994	
7.18842	
7.19147	
7.19757	
7.19757	
7.18842	
7.19147	
7.18994	
7.19757	
7.2052	
7.20367	
7.19452	
7.1991	
7.19604	
7.19452	
7.19147	
7.18994	
7.19604	
7.19299	
7.19299	
7.19452	
7.19604	
7.19299	
7.19604	
7.19147	
7.19452	
7.19452	
7.19299	
7.18689	
7.19604	
7.1991	
7.1991	
7.19604	
7.20062	
7.19604	
7.19452	
7.19604	
7.18994	
7.19147	
7.18842	
7.19147	
7.19147	
7.19452	
7.20062	
7.19452	
7.19452	
7.17773	
7.18536	
7.17926	
7.18994	
7.19604	
7.19604	
7.19604	
7.19452	
7.18994	
7.18842	
7.18994	
7.18689	
7.19299	
7.19147	
7.19147	
7.18689	
7.18689	
7.18842	
7.19299	
7.18994	
7.19299	
7.19604	
7.18842	
7.19452	
7.18994	
7.19604	
7.19147	
7.18994	
7.18689	
7.19452	
7.1991	
7.19604	
7.19452	
7.19147	
7.19147	
7.18994	
7.19147	
7.18536	
7.18842	
7.19604	
7.19147	
7.19604	
7.19452	
7.19452	
7.19604	
7.19604	
7.19299	
7.20062	
7.18994	
7.19299	
7.18384	
7.19299	
7.20062	
7.19299	
7.19452	
7.19452	
7.19299	
7.19147	
7.18842	
7.19452	
7.19147	
7.19757	
7.2052	
7.20367	
7.20215	
7.19299	
7.19452	
7.18689	
7.19452	
7.18536	
7.18994	
7.19299	
7.18689	
7.19757	
7.19604	
7.19757	
7.19452	
7.19757	
7.19604	
7.19604	
7.19299	
7.19299	
7.18689	
7.17316	
7.17926	
7.18842	
7.21741	
7.2052	
7.19757	
7.1991	
7.1991	
7.1991	
7.2052	
7.1991	
7.20215	
7.20062	
7.19757	
7.20215	
7.19604	
7.19604	
7.19452	
7.20367	
7.20367	
7.20215	
7.1991	
7.1991	
7.20215	
7.20367	
7.20367	
7.19604	
7.19452	
7.19147	
7.1991	
7.1991	
7.20062	
7.20062	
7.20062	
7.20215	
7.20367	
7.19757	
7.20062	
7.19757	
7.19452	
7.20062	
7.1991	
7.20062	
7.19147	
7.2052	
7.2113	
7.20978	
7.20978	
7.20215	
7.19299	
7.18689	
7.18842	
7.18994	
7.19452	
7.19604	
7.19299	
7.18994	
7.18994	
7.18994	
7.18994	
7.18842	
7.19299	
7.19452	
7.19604	
7.20062	
7.19604	
7.19604	
7.18689	
7.18842	
7.17773	
7.18689	
7.18842	
7.19299	
7.20062	
7.19452	
7.20215	
7.19299	
7.19452	
7.19604	
7.20062	
7.1991	
7.19757	
7.1991	
7.20367	
7.20215	
7.20062	
7.20062	
7.1991	
7.20062	
7.19299	
7.20062	
7.1991	
7.19757	
7.19452	
7.19299	
7.19604	
7.1991	
7.20062	
7.1991	
7.20062	
7.19452	
7.2052	
7.20062	
7.20062	
7.1991	
7.1991	
7.19452	
7.20062	
7.2052	
7.20673	
7.20062	
7.2052	
7.20215	
7.20062	
7.2052	
7.1991	
7.20673	
7.20978	
7.20673	
7.20367	
7.20978	
7.20215	
7.1991	
7.20215	
7.20062	
7.20215	
7.1991	
7.1991	
7.19147	
7.2052	
7.21283	
7.20825	
7.20825	
7.20215	
7.20062	
7.20215	
7.19604	
7.19452	
7.18842	
7.18536	
7.20367	
7.20978	
7.20978	
7.20367	
7.2052	
7.20215	
7.2052	
7.20215	
7.20062	
7.20215	
7.1991	
7.20673	
7.20367	
7.2052	
7.2052	
7.1991	
7.19757	
7.2052	
7.20062	
7.20367	
7.1991	
7.1991	
7.19299	
7.19757	
7.21283	
7.20673	
7.20825	
7.20367	
7.2052	
7.20673	
7.2052	
7.20367	
7.20367	
7.2052	
7.2052	
7.20825	
7.20215	
7.20367	
7.20215	
7.1991	
7.1991	
7.1991	
7.19757	
7.19452	
7.20215	
7.20673	
7.19757	
7.20062	
7.19757	
7.1991	
7.2052	
7.20673	
7.20825	
7.20215	
7.20367	
7.20215	
7.20215	
7.20367	
7.20673	
7.2052	
7.20367	
7.20673	
7.20673	
7.2052	
7.19452	
7.19757	
7.2052	
7.20825	
7.20215	
7.19757	
7.18994	
7.19604	
7.19299	
7.19757	
7.2113	
7.21283	
7.20978	
7.20367	
7.20673	
7.20978	
7.20978	
7.2052	
7.20367	
7.20978	
7.2052	
7.20367	
7.20215	
7.20215	
7.20367	
7.20978	
7.20673	
7.2052	
7.20215	
7.20215	
7.20367	
7.20825	
7.1991	
7.20673	
7.20367	
7.20062	
7.2052	
7.2052	
7.20673	
7.1991	
7.20367	
7.20062	
7.20367	
7.20215	
7.19604	
7.19604	
7.2052	
7.20825	
7.2052	
7.20825	
7.20215	
7.20825	
7.20825	
7.20978	
7.20978	
7.20673	
7.20215	
7.20673	
7.20367	
7.1991	
7.20978	
7.20215	
7.20215	
7.20673	
7.21588	
7.20215	
7.20062	
7.20215	
7.20215	
7.20673	
7.2052	
7.20978	
7.20062	
7.20367	
7.20825	
7.21283	
7.20673	
7.20215	
7.18994	
7.18842	
7.20062	
7.20978	
7.20062	
7.20215	
7.19757	
7.18994	
7.20062	
7.20978	
7.20825	
7.20062	
7.20062	
7.1991	
7.19604	
7.20367	
7.20367	
7.20825	
7.1991	
7.20825	
7.20215	
7.20673	
7.20367	
7.20825	
7.20062	
7.2052	
7.2052	
7.20215	
7.20673	
7.20825	
7.20215	
7.20062	
7.21283	
7.20978	
7.20367	
7.19604	
7.1991	
7.20215	
7.20215	
7.20215	
7.20215	
7.2052	
7.2052	
7.20978	
7.20367	
7.2052	
7.2052	
7.20978	
7.2052	
7.2052	
7.1991	
7.19757	
7.19757	
7.20367	
7.19604	
7.19757	
7.20062	
7.19604	
7.20673	
7.2052	
7.20673	
7.20215	
7.20215	
7.20062	
7.2052	
7.20673	
7.20367	
7.20215	
7.2052	
7.20978	
7.20978	
7.20825	
7.20367	
7.20673	
7.20825	
7.20825	
7.21588	
7.20825	
7.20978	
7.2052	
7.19757	
7.1991	
7.20673	
7.18689	
7.19147	
7.1991	
7.20978	
7.20062	
7.2113	
7.20825	
7.20215	
7.20215	
7.20367	
7.2052	
7.19757	
7.1991	
7.20062	
7.20062	
7.20367	
7.20215	
7.20062	
7.20367	
7.2052	
7.20673	
7.2052	
7.2052	
7.20673	
7.19604	
7.2052	
7.20062	
7.20215	
7.1991	
7.20215	
7.20367	
7.20215	
7.20062	
7.20062	
7.2052	
7.20215	
7.20825	
7.20673	
7.21893	
7.20825	
7.2052	
7.20825	
7.20825	
7.2052	
7.2052	
7.1991	
7.2052	
7.20215	
7.20062	
7.2052	
7.20062	
7.20062	
7.20825	
7.20978	
7.20825	
7.20978	
7.2052	
7.2052	
7.2052	
7.20673	
7.2113	
7.20367	
7.20673	
7.20825	
7.21741	
7.20825	
7.20825	
7.20978	
7.20825	
7.2052	
7.20825	
7.20367	
7.20673	
7.20978	
7.20062	
7.20215	
7.19299	
7.18536	
7.18994	
7.19147	
7.21741	
7.22198	
7.21893	
7.21741	
7.21588	
7.20825	
7.2113	
7.20825	
7.2113	
7.20367	
7.20673	
7.20825	
7.20825	
7.2113	
7.2113	
7.21283	
7.21588	
7.21588	
7.20978	
7.21588	
7.20215	
7.20825	
7.21588	
7.22046	
7.21893	
7.21741	
7.20825	
7.2113	
7.21588	
7.20825	
7.2113	
7.2052	
7.21283	
7.21283	
7.21588	
7.20978	
7.20825	
7.2052	
7.20367	
7.20673	
7.20825	
7.20062	
7.20215	
7.20978	
7.2052	
7.20825	
7.20825	
7.2113	
7.21283	
7.21588	
7.20978	
7.21588	
7.20673	
7.20673	
7.2052	
7.19452	
7.1991	
7.20062	
7.21283	
7.21283	
7.20673	
7.2052	
7.20367	
7.20825	
7.20673	
7.20673	
7.2113	
7.2113	
7.2113	
7.21741	
7.20825	
7.2052	
7.19757	
7.20673	
7.2052	
7.20825	
7.20367	
7.20367	
7.2052	
7.20215	
7.20978	
7.20215	
7.1991	
7.1991	
7.21588	
7.21588	
7.20215	
7.1991	
7.20215	
7.20673	
7.20825	
7.2052	
7.20367	
7.20825	
7.20062	
7.20673	
7.2052	
7.2113	
7.2052	
7.2052	
7.20673	
7.21283	
7.20978	
7.2052	
7.20825	
7.20367	
7.20978	
7.20825	
7.20978	
7.2052	
7.20825	
7.20978	
7.2113	
7.20978	
7.20367	
7.20062	
7.20215	
7.19452	
7.20825	
7.21741	
7.2052	
7.2052	
7.2052	
7.20978	
7.20978	
7.20673	
7.20978	
7.20825	
7.21588	
7.20673	
7.20978	
7.1991	
7.20673	
7.20673	
7.21588	
7.21283	
7.20978	
7.20825	
7.20673	
7.20825	
7.2113	
7.2113	
7.21283	
7.21741	
7.20673	
7.2113	
7.20825	
7.21588	
7.20673	
7.20215	
7.20367	
7.21741	
7.2113	
7.20825	
7.20825	
7.20825	
7.21588	
7.2113	
7.21283	
7.20825	
7.2113	
7.20978	
7.20367	
7.20978	
7.21893	
7.22351	
7.22046	
7.21283	
7.20978	
7.22046	
7.22198	
7.21741	
7.2113	
7.21283	
7.21741	
7.21283	
7.20825	
7.20673	
7.2113	
7.20673	
7.2113	
7.20367	
7.20062	
7.19299	
7.20367	
7.21283	
7.22961	
7.22046	
7.20978	
7.20825	
7.20825	
7.20367	
7.21283	
7.21893	
7.20978	
7.21893	
7.21588	
7.21893	
7.20825	
7.2113	
7.20825	
7.20978	
7.20825	
7.2052	
7.2113	
7.2113	
7.21893	
7.22046	
7.22198	
7.21588	
7.21893	
7.20978	
7.21588	
7.21893	
7.20978	
7.2113	
7.2113	
7.2113	
7.21283	
7.2113	
7.20978	
7.20978	
7.20825	
7.21741	
7.2113	
7.2113	
7.2113	
7.20825	
7.2113	
7.20978	
7.21588	
7.2052	
7.20825	
7.2052	
7.21283	
7.2113	
7.20978	
7.2113	
7.21283	
7.21283	
7.21588	
7.20978	
7.20825	
7.21283	
7.20367	
7.20978	
7.20978	
7.20978	
7.20215	
7.2052	
7.21588	
7.21588	
7.20825	
7.20062	
7.20367	
7.20215	
7.21283	
7.20825	
7.21741	
7.20825	
7.20825	
7.20978	
7.20825	
7.2052	
7.19757	
7.20062	
7.21588	
7.21283	
7.20825	
7.21741	
7.2113	
7.21283	
7.20673	
7.20825	
7.20673	
7.21283	
7.20825	
7.20215	
7.20978	
7.21283	
7.22046	
7.20673	
7.20825	
7.20367	
7.21741	
7.21283	
7.20978	
7.2052	
7.2052	
7.20978	
7.20673	
7.20673	
7.20825	
7.2113	
7.20367	
7.20978	
7.20367	
7.22809	
7.22504	
7.21893	
7.20825	
7.20825	
7.20367	
7.20062	
7.2113	
7.21588	
7.21893	
7.2113	
7.21588	
7.20215	
7.20215	
7.20673	
7.20825	
7.20978	
7.2052	
7.20367	
7.20825	
7.20978	
7.20673	
7.2113	
7.20673	
7.20673	
7.2052	
7.20673	
7.20673	
7.2052	
7.1991	
7.20215	
7.20825	
7.21588	
7.21893	
7.20673	
7.2052	
7.20367	
7.20978	
7.20978	
7.20825	
7.2052	
7.20825	
7.21588	
7.21588	
7.20825	
7.19757	
7.20215	
7.21741	
7.21741	
7.2052	
7.20367	
7.20978	
7.20978	
7.20825	
7.2113	
7.20825	
7.20825	
7.20367	
7.20215	
7.2052	
7.20825	
7.2113	
7.20367	
7.20367	
7.20978	
7.2113	
7.21588	
7.21283	
7.20978	
7.21283	
7.21283	
7.20673	
7.21283	
7.20367	
7.20825	
7.20367	
7.20978	
7.21283	
7.21588	
7.21283	
7.21741	
7.21741	
7.2052	
7.2052	
7.19604	
7.20367	
7.19757	
7.1991	
7.20062	
7.19299	
7.19452	
7.19452	
7.19452	
7.19452	
7.18994	
7.18536	
7.18842	
7.18994	
7.19604	
7.19604	
7.20215	
7.20673	
7.20673	
7.1991	
7.20825	
7.20673	
7.2052	
7.2113	
7.2052	
7.20825	
7.2113	
7.21283	
7.20215	
7.2052	
7.20062	
7.19757	
7.18994	
7.1991	
7.22504	
7.22809	
7.21893	
7.20978	
7.20673	
7.2052	
7.2052	
7.20215	
7.20367	
7.20367	
7.2052	
7.20215	
7.2052	
7.20825	
7.20673	
7.20978	
7.19757	
7.19757	
7.19299	
7.19604	
7.20673	
7.21283	
7.20978	
7.20825	
7.20825	
7.20978	
7.2113	
7.20673	
7.2052	
7.1991	
7.2052	
7.1991	
7.20062	
7.20215	
7.2052	
7.2052	
7.2052	
7.20367	
7.2052	
7.20215	
7.20062	
7.20825	
7.20062	
7.20367	
7.19757	
7.19604	
7.20673	
7.20367	
7.2052	
7.2052	
7.2052	
7.20367	
7.2052	
7.20673	
7.20978	
7.20367	
7.20215	
7.20062	
7.2052	
7.20673	
7.20978	
7.20062	
7.20062	
7.20825	
7.20367	
7.2052	
7.19757	
7.20215	
7.1991	
7.20825	
7.2052	
7.1991	
7.19757	
7.19757	
7.20215	
7.2052	
7.20215	
7.1991	
7.20062	
7.19757	
7.20062	
7.19757	
7.1991	
7.20215	
7.20367	
7.20367	
7.21283	
7.20825	
7.20367	
7.2052	
7.1991	
7.20367	
7.19757	
7.20673	
7.20062	
7.19757	
7.19757	
7.19604	
7.19147	
7.1991	
7.1991	
7.1991	
7.2052	
7.20215	
7.20825	
7.1991	
7.19757	
7.18994	
7.19147	
7.18842	
7.18994	
7.18842	
7.18994	
7.20062	
7.20367	
7.20673	
7.19452	
7.20367	
7.20367	
7.2113	
7.2052	
7.2052	
7.20215	
7.20673	
7.2113	
7.2113	
7.20825	
7.20215	
7.2052	
7.19604	
7.19757	
7.19604	
7.19604	
7.18842	
7.18994	
7.2113	
7.2113	
7.2052	
7.2052	
7.20367	
7.1991	
7.2052	
7.20367	
7.20367	
7.20062	
7.19452	
7.19757	
7.1991	
7.1991	
7.19604	
7.19299	
7.19299	
7.19452	
7.19299	
7.20367	
7.20062	
7.19604	
7.19452	
7.1991	
7.19452	
7.19147	
7.20062	
7.20978	
7.20673	
7.19604	
7.2052	
7.19452	
7.19757	
7.19452	
7.19604	
7.19757	
7.20062	
7.19757	
7.1991	
7.20062	
7.19757	
7.1991	
7.19299	
7.19757	
7.19757	
7.20215	
7.1991	
7.20062	
7.1991	
7.2052	
7.20215	
7.20367	
7.20215	
7.19757	
7.1991	
7.19757	
7.20215	
7.20062	
7.20062	
7.19299	
7.19604	
7.18994	
7.19452	
7.20062	
7.1991	
7.20062	
7.20062	
7.20215	
7.2052	
7.20215	
7.19757	
7.19452	
7.18842	
7.18994	
7.19147	
7.20367	
7.19147	
7.19452	
7.1991	
7.19604	
7.20215	
7.19452	
7.19147	
7.18689	
7.19452	
7.19147	
7.19299	
7.19604	
7.20367	
7.20215	
7.20062	
7.20062	
7.19452	
7.19452	
7.18689	
7.19452	
7.19757	
7.18994	
7.18689	
7.19604	
7.19299	
7.19299	
7.19147	
7.18994	
7.20062	
7.20062	
7.1991	
7.1991	
7.20978	
7.19757	
7.1991	
7.20062	
7.20062	
7.19604	
7.18994	
7.18994	
7.19299	
7.19452	
7.18994	
7.19299	
7.20673	
7.20367	
7.19299	
7.19757	
7.2052	
7.2052	
7.20367	
7.20215	
7.20367	
7.19757	
7.1991	
7.19604	
7.1991	
7.19299	
7.20215	
7.1991	
7.20062	
7.1991	
7.19757	
7.19604	
7.20215	
7.1991	
7.19299	
7.1991	
7.19147	
7.19452	
7.19452	
7.19604	
7.18842	
7.18994	
7.18994	
7.19452	
7.19299	
7.19452	
7.1991	
7.1991	
7.1991	
7.19757	
7.19757	
7.19147	
7.19147	
7.18689	
7.19452	
7.19757	
7.1991	
7.19299	
7.19452	
7.19604	
7.19147	
7.19299	
7.18689	
7.18689	
7.20062	
7.21588	
7.20215	
7.20367	
7.19757	
7.1991	
7.20367	
7.19757	
7.20673	
7.19452	
7.20215	
7.19757	
7.20215	
7.19757	
7.19452	
7.19452	
7.20062	
7.19757	
7.18994	
7.19147	
7.18079	
7.19452	
7.1991	
7.1991	
7.1991	
7.1991	
7.19452	
7.19299	
7.18994	
7.19604	
7.19757	
7.19757	
7.1991	
7.19147	
7.18994	
7.19147	
7.19757	
7.19147	
7.19452	
7.19604	
7.19452	
7.19452	
7.19299	
7.19757	
7.18689	
7.19604	
7.19299	
7.20215	
7.19604	
7.19299	
7.19604	
7.1991	
7.19757	
7.19604	
7.18994	
7.18994	
7.19604	
7.1991	
7.20062	
7.19757	
7.19604	
7.19604	
7.1991	
7.1991	
7.19452	
7.19299	
7.19757	
7.19757	
7.19757	
7.20062	
7.19299	
7.19147	
7.19452	
7.19757	
7.19604	
7.19452	
7.19452	
7.20215	
7.20367	
7.1991	
7.1991	
7.1991	
7.19757	
7.19452	
7.20062	
7.20215	
7.20825	
7.1991	
7.1991	
7.20215	
7.20062	
7.19452	
7.19299	
7.18842	
7.17926	
7.19299	
7.1991	
7.22351	
7.21283	
7.2052	
7.20367	
7.20673	
7.20062	
7.20062	
7.19604	
7.20673	
7.20825	
7.20062	
7.2052	
7.1991	
7.1991	
7.19299	
7.20673	
7.21283	
7.20673	
7.19757	
7.2052	
7.20673	
7.20367	
7.2052	
7.19757	
7.19299	
7.19452	
7.20367	
7.20215	
7.20673	
7.1991	
7.2052	
7.20367	
7.2052	
7.2052	
7.19757	
7.2052	
7.19757	
7.1991	
7.20215	
7.20978	
7.2052	
7.2052	
7.20367	
7.20673	
7.20215	
7.20825	
7.20215	
7.20673	
7.20673	
7.20215	
7.20367	
7.20062	
7.1991	
7.19604	
7.19604	
7.19757	
7.19452	
7.1991	
7.20062	
7.20215	
7.20062	
7.20825	
7.19604	
7.20062	
7.1991	
7.20367	
7.2052	
7.20367	
7.20215	
7.20367	
7.20062	
7.20215	
7.19757	
7.19299	
7.19147	
7.19757	
7.20062	
7.1991	
7.20215	
7.19452	
7.20062	
7.20062	
7.20062	
7.20215	
7.19757	
7.20062	
7.19299	
7.20062	
7.19757	
7.20215	
7.20062	
7.1991	
7.20367	
7.20367	
7.20367	
7.20062	
7.1991	
7.19452	
7.20367	
7.1991	
7.2052	
7.20215	
7.20062	
7.19604	
7.19604	
7.20367	
7.2113	
7.20673	
7.20215	
7.20062	
7.19757	
7.20215	
7.20215	
7.20978	
7.2052	
7.20978	
7.20825	
7.2113	
7.2052	
7.20673	
7.20367	
7.20062	
7.20062	
7.1991	
7.20062	
7.19757	
7.19757	
7.20215	
7.1991	
7.19299	
7.19604	
7.20062	
7.20367	
7.20215	
7.19604	
7.20367	
7.1991	
7.1991	
7.20215	
7.20062	
7.18842	
7.19604	
7.19604	
7.19757	
7.19757	
7.19604	
7.20062	
7.19299	
7.20062	
7.1991	
7.19757	
7.18994	
7.18842	
7.18536	
7.18842	
7.18536	
7.20215	
7.21283	
7.20367	
7.20215	
7.20367	
7.20367	
7.19452	
7.19757	
7.19452	
7.20062	
7.20062	
7.20215	
7.19757	
7.19604	
7.1991	
7.19757	
7.2052	
7.19757	
7.19452	
7.19452	
7.19757	
7.1991	
7.19757	
7.19757	
7.19757	
7.19452	
7.19299	
7.19604	
7.2052	
7.20978	
7.1991	
7.20062	
7.19452	
7.20062	
7.18994	
7.19452	
7.19604	
7.20215	
7.19299	
7.19757	
7.19604	
7.19452	
7.19299	
7.18994	
7.19147	
7.19147	
7.2052	
7.1991	
7.20062	
7.19452	
7.19604	
7.19299	
7.19299	
7.20215	
7.2052	
7.20825	
7.19757	
7.20062	
7.19604	
7.20367	
7.20215	
7.1991	
7.20062	
7.20062	
7.20367	
7.20215	
7.20825	
7.19757	
7.1991	
7.20215	
7.2052	
7.19452	
7.19452	
7.19299	
7.19757	
7.19757	
7.19604	
7.1991	
7.19299	
7.19452	
7.18994	
7.19604	
7.19604	
7.2052	
7.1991	
7.19757	
7.19604	
7.19757	
7.20215	
7.19604	
7.19757	
7.19757	
7.20062	
7.20215	
7.2052	
7.19757	
7.19757	
7.19299	
7.20062	
7.20367	
7.20673	
7.2052	
7.20215	
7.20673	
7.20367	
7.20062	
7.18994	
7.18536	
7.18079	
7.19604	
7.19452	
7.19757	
7.19299	
7.19299	
7.19757	
7.20062	
7.1991	
7.18842	
7.18536	
7.18842	
7.20062	
7.20673	
7.20215	
7.1991	
7.1991	
7.20215	
7.20062	
7.2052	
7.20062	
7.2052	
7.20062	
7.20367	
7.1991	
7.20062	
7.19147	
7.19452	
7.19604	
7.19147	
7.20062	
7.19604	
7.19757	
7.20062	
7.20367	
7.20062	
7.20215	
7.1991	
7.1991	
7.19604	
7.20215	
7.20367	
7.1991	
7.19757	
7.19604	
7.19757	
7.19147	
7.18689	
7.18689	
7.20673	
7.20062	
7.20367	
7.19757	
7.1991	
7.1991	
7.19757	
7.20215	
7.20825	
7.20673	
7.19604	
7.19452	
7.19299	
7.20215	
7.1991	
7.2052	
7.1991	
7.20215	
7.1991	
7.1991	
7.20062	
7.19757	
7.1991	
7.20062	
7.20215	
7.1991	
7.20062	
7.19452	
7.18994	
7.18994	
7.19147	
7.18994	
7.18842	
7.18689	
7.18079	
7.18994	
7.18994	
7.18994	
7.17926	
7.17926	
7.18842	
7.19452	
7.18842	
7.18842	
7.18689	
7.18994	
7.19299	
7.19147	
7.2052	
7.1991	
7.19147	
7.18842	
7.19604	
7.19757	
7.19147	
7.19299	
7.19757	
7.19604	
7.19604	
7.20215	
7.20062	
7.20215	
7.1991	
7.2052	
7.20978	
7.2052	
7.20062	
7.1991	
7.19604	
7.19147	
7.1991	
7.19604	
7.19299	
7.19147	
7.19757	
7.20062	
7.2052	
7.19147	
7.19147	
7.18994	
7.18842	
7.18994	
7.20215	
7.1991	
7.19299	
7.19299	
7.19147	
7.19452	
7.19299	
7.20062	
7.20062	
7.20673	
7.1991	
7.20215	
7.2052	
7.2052	
7.20673	
7.20215	
7.20215	
7.1991	
7.1991	
7.19452	
7.1991	
7.19452	
7.19757	
7.20215	
7.20062	
7.2052	
7.20673	
7.2052	
7.20062	
7.20367	
7.20215	
7.20673	
7.20215	
7.19604	
7.19604	
7.19757	
7.19757	
7.19757	
7.20062	
7.19757	
7.1991	
7.19604	
7.20062	
7.20215	
7.20825	
7.20062	
7.20215	
7.20062	
7.20367	
7.2052	
7.19757	
7.20215	
7.19147	
7.19452	
7.19757	
7.20825	
7.20215	
7.20367	
7.19604	
7.19604	
7.19604	
7.19604	
7.1991	
7.19299	
7.20215	
7.20062	
7.20367	
7.19604	
7.20367	
7.19757	
7.20673	
7.20673	
7.1991	
7.19757	
7.20062	
7.20825	
7.20367	
7.2052	
7.19604	
7.18994	
7.19299	
7.19452	
7.18994	
7.19452	
7.20062	
7.2113	
7.20673	
7.20673	
7.2052	
7.20673	
7.20215	
7.19452	
7.1991	
7.19452	
7.19757	
7.19299	
7.19452	
7.19452	
7.20062	
7.20062	
7.19757	
7.20367	
7.19452	
7.20062	
7.19604	
7.1991	
7.19452	
7.19299	
7.20062	
7.20825	
7.2052	
7.2052	
7.20367	
7.19757	
7.19757	
7.19299	
7.19757	
7.18842	
7.19147	
7.18994	
7.19757	
7.19757	
7.19299	
7.19299	
7.19757	
7.19299	
7.19452	
7.19604	
7.18842	
7.18994	
7.19757	
7.20367	
7.20062	
7.20062	
7.2052	
7.2113	
7.20825	
7.1991	
7.19452	
7.19299	
7.19147	
7.17773	
7.18079	
7.20215	
7.20978	
7.20062	
7.20215	
7.20062	
7.20215	
7.20062	
7.19452	
7.19604	
7.19757	
7.19757	
7.19452	
7.19604	
7.19299	
7.19604	
7.19299	
7.19452	
7.19452	
7.18842	
7.18536	
7.18842	
7.19147	
7.18994	
7.19452	
7.18994	
7.19452	
7.19147	
7.19604	
7.19299	
7.19147	
7.19299	
7.19452	
7.19452	
7.19299	
7.19299	
7.18842	
7.18994	
7.18536	
7.19299	
7.19452	
7.19604	
7.18536	
7.17926	
7.18384	
7.20062	
7.19452	
7.18994	
7.18994	
7.18536	
7.19147	
7.19147	
7.19452	
7.19147	
7.19299	
7.19604	
7.19757	
7.19452	
7.19299	
7.19299	
7.18994	
7.19604	
7.19604	
7.19452	
7.18689	
7.18842	
7.17468	
7.18994	
7.18689	
7.18842	
7.18689	
7.18536	
7.18994	
7.18842	
7.19452	
7.18079	
7.17773	
7.17621	
7.17621	
7.17468	
7.18384	
7.19452	
7.1991	
7.20215	
7.19604	
7.19757	
7.19452	
7.18689	
7.18079	
7.18689	
7.18994	
7.18384	
7.18079	
7.18842	
7.19147	
7.18994	
7.19299	
7.18994	
7.19452	
7.19147	
7.19452	
7.19452	
7.19147	
7.18536	
7.17926	
7.18536	
7.18536	
7.18689	
7.18842	
7.18536	
7.18842	
7.19147	
7.19147	
7.18842	
7.18079	
7.17468	
7.18536	
7.19299	
7.19299	
7.19147	
7.19147	
7.19452	
7.19452	
7.19604	
7.19757	
7.19299	
7.19299	
7.18842	
7.19452	
7.19147	
7.18994	
7.18689	
7.18384	
7.18079	
7.18079	
7.19299	
7.18384	
7.17773	
7.17468	
7.18079	
7.17926	
7.18842	
7.18842	
7.18994	
7.18994	
7.19147	
7.19299	
7.18842	
7.18994	
7.18689	
7.18689	
7.18079	
7.18842	
7.18536	
7.18994	
7.18994	
7.18536	
7.18689	
7.18384	
7.18689	
7.18384	
7.19299	
7.18994	
7.18994	
7.18689	
7.18689	
7.18536	
7.18384	
7.18384	
7.19757	
7.19452	
7.18689	
7.18689	
7.18536	
7.19147	
7.18842	
7.18994	
7.18842	
7.19757	
7.19452	
7.19147	
7.18994	
7.18994	
7.19147	
7.20062	
7.19757	
7.18842	
7.18536	
7.18536	
7.18689	
7.19452	
7.18689	
7.19147	
7.18842	
7.18842	
7.18842	
7.19299	
7.18384	
7.18536	
7.18079	
7.18994	
7.19299	
7.19299	
7.18842	
7.18842	
7.19452	
7.19452	
7.18994	
7.18689	
7.18842	
7.18842	
7.19299	
7.18994	
7.18689	
7.18689	
7.18842	
7.18994	
7.18994	
7.18689	
7.19147	
7.19452	
7.19147	
7.19452	
7.19299	
7.19604	
7.19147	
7.18384	
7.17163	
7.18384	
7.18079	
7.19299	
7.20215	
7.19604	
7.19757	
7.19452	
7.19299	
7.18689	
7.17926	
7.18384	
7.18384	
7.18842	
7.18536	
7.18994	
7.18994	
7.19299	
7.19452	
7.19604	
7.19604	
7.19452	
7.18994	
7.19299	
7.17926	
7.18689	
7.18536	
7.18994	
7.19452	
7.18994	
7.18689	
7.17926	
7.17926	
7.17926	
7.19147	
7.19299	
7.18994	
7.18689	
7.18384	
7.17926	
7.18689	
7.18079	
7.18384	
7.18536	
7.18689	
7.18994	
7.18536	
7.19299	
7.18842	
7.18536	
7.18079	
7.18536	
7.18384	
7.18536	
7.18536	
7.18689	
7.19299	
7.19147	
7.18994	
7.18994	
7.18384	
7.17926	
7.18689	
7.18384	
7.18842	
7.18842	
7.19299	
7.19147	
7.19147	
7.19604	
7.19452	
7.19757	
7.19452	
7.19757	
7.19604	
7.18994	
7.18384	
7.17926	
7.18079	
7.18994	
7.19147	
7.18689	
7.18842	
7.18079	
7.18384	
7.18536	
7.19452	
7.18994	
7.19147	
7.18689	
7.19147	
7.18689	
7.18994	
7.18994	
7.18536	
7.19147	
7.18842	
7.19452	
7.17773	
7.18079	
7.17773	
7.17773	
7.17316	
7.17926	
7.19604	
7.18994	
7.19147	
7.18689	
7.18384	
7.18384	
7.17926	
7.18079	
7.18536	
7.18079	
7.18079	
7.18842	
7.19147	
7.18689	
7.18384	
7.18689	
7.18079	
7.18842	
7.17773	
7.18842	
7.18384	
7.19452	
7.19299	
7.19147	
7.19147	
7.19452	
7.19299	
7.18994	
7.19147	
7.18536	
7.19147	
7.19452	
7.19604	
7.19147	
7.18994	
7.18384	
7.17926	
7.17621	
7.17621	
7.17468	
7.17468	
7.18689	
7.19757	
7.20978	
7.19604	
7.19452	
7.18079	
7.18384	
7.17621	
7.19299	
7.19452	
7.19299	
7.19147	
7.19147	
7.19299	
7.18689	
7.18536	
7.19147	
7.19147	
7.19452	
7.19452	
7.18994	
7.18994	
7.18536	
7.18689	
7.17926	
7.18689	
7.19452	
7.18842	
7.19147	
7.18842	
7.18842	
7.18536	
7.18842	
7.18689	
7.18842	
7.18689	
7.17773	
7.18536	
7.18689	
7.18842	
7.19299	
7.20215	
7.20215	
7.19604	
7.19299	
7.19299	
7.18994	
7.18994	
7.18079	
7.17926	
7.18842	
7.18536	
7.18384	
7.17316	
7.18536	
7.17773	
7.18536	
7.18994	
7.18842	
7.18689	
7.18994	
7.19147	
7.19147	
7.19452	
7.19147	
7.18994	
7.19147	
7.19299	
7.18842	
7.18994	
7.18384	
7.18994	
7.18842	
7.18384	
7.18536	
7.17621	
7.18079	
7.17621	
7.18536	
7.18079	
7.18536	
7.17773	
7.18079	
7.18536	
7.18689	
7.18689	
7.18079	
7.17926	
7.17773	
7.18689	
7.18994	
7.18689	
7.18689	
7.18536	
7.18689	
7.18689	
7.17926	
7.18384	
7.18689	
7.18384	
7.18842	
7.17621	
7.18536	
7.18384	
7.18842	
7.18079	
7.18536	
7.18536	
7.18536	
7.18384	
7.18536	
7.19147	
7.19299	
7.18536	
7.18536	
7.17316	
7.17468	
7.17621	
7.17926	
7.18384	
7.18384	
7.18842	
7.18689	
7.18384	
7.18536	
7.17468	
7.17621	
7.17468	
7.18842	
7.18842	
7.19452	
7.18689	
7.18079	
7.17773	
7.18079	
7.18384	
7.18384	
7.19299	
7.18689	
7.18689	
7.18689	
7.18842	
7.18384	
7.18384	
7.18384	
7.18079	
7.18689	
7.19452	
7.18689	
7.17926	
7.18842	
7.18842	
7.19147	
7.18689	
7.18842	
7.18536	
7.18842	
7.18842	
7.18994	
7.19299	
7.19147	
7.19604	
7.19299	
7.19147	
7.19452	
7.19299	
7.19147	
7.19299	
7.18689	
7.18994	
7.18689	
7.18689	
7.18536	
7.18994	
7.19299	
7.18536	
7.18689	
7.17621	
7.18536	
7.17926	
7.18994	
7.18384	
7.18384	
7.18384	
7.18689	
7.18536	
7.18079	
7.18689	
7.18384	
7.18842	
7.18994	
7.19147	
7.18384	
7.18689	
7.18842	
7.18994	
7.18384	
7.17926	
7.18689	
7.18079	
7.18689	
7.18536	
7.18842	
7.17773	
7.18384	
7.18079	
7.19147	
7.18689	
7.18384	
7.18689	
7.18689	
7.18384	
7.17773	
7.17926	
7.17316	
7.19299	
7.19147	
7.19452	
7.19147	
7.19147	
7.18689	
7.19147	
7.19452	
7.18689	
7.18994	
7.18079	
7.18842	
7.18536	
7.17926	
7.17621	
7.17468	
7.17316	
7.18536	
7.18842	
7.18536	
7.18384	
7.17773	
7.17621	
7.17773	
7.18079	
7.18079	
7.17926	
7.17773	
7.18384	
7.17773	
7.18842	
7.18384	
7.18536	
7.18384	
7.17926	
7.18842	
7.19147	
7.18842	
7.17773	
7.18384	
7.17926	
7.17926	
7.17926	
7.17926	
7.17621	
7.17163	
7.17621	
7.17773	
7.18079	
7.17621	
7.17468	
7.17163	
7.17468	
7.17468	
7.17468	
7.16858	
7.17468	
7.17926	
7.17926	
7.17926	
7.17468	
7.18079	
7.17773	
7.18079	
7.18079	
7.18994	
7.18536	
7.18536	
7.18842	
7.18384	
7.18079	
7.17468	
7.17773	
7.17621	
7.18079	
7.18079	
7.17926	
7.17163	
7.17316	
7.17773	
7.18842	
7.18079	
7.18536	
7.18079	
7.18079	
7.18994	
7.18384	
7.18536	
7.17468	
7.18079	
7.17163	
7.17621	
7.18384	
7.17926	
7.17773	
7.17163	
7.18689	
7.19757	
7.19299	
7.18079	
7.17773	
7.17773	
7.18079	
7.18384	
7.18384	
7.17926	
7.18842	
7.18994	
7.19299	
7.19147	
7.18536	
7.18842	
7.18689	
7.18384	
7.17163	
7.17926	
7.17773	
7.18079	
7.18842	
7.18842	
7.18536	
7.17316	
7.18079	
7.17926	
7.18079	
7.17926	
7.18079	
7.19299	
7.18384	
7.18079	
7.17926	
7.17773	
7.18384	
7.18384	
7.18536	
7.18536	
7.18536	
7.18689	
7.18536	
7.18384	
7.17621	
7.18079	
7.17773	
7.17926	
7.17773	
7.17926	
7.17621	
7.1701	
7.17316	
7.1701	
7.17926	
7.18536	
7.18689	
7.18079	
7.17926	
7.17468	
7.17773	
7.17773	
7.17621	
7.17773	
7.17316	
7.17621	
7.17163	
7.17468	
7.17468	
7.17621	
7.17163	
7.17468	
7.17926	
7.17316	
7.17316	
7.1701	
7.17468	
7.1701	
7.17316	
7.17163	
7.17773	
7.17316	
7.17316	
7.17773	
7.18079	
7.18079	
7.17926	
7.18536	
7.17926	
7.18536	
7.18842	
7.18384	
7.1701	
7.164	
7.16095	
7.17163	
7.17773	
7.17316	
7.17621	
7.17316	
7.17316	
7.17316	
7.17316	
7.17468	
7.17621	
7.17773	
7.18079	
7.17926	
7.17926	
7.17773	
7.18384	
7.18384	
7.17773	
7.18079	
7.17773	
7.17468	
7.16553	
7.1701	
7.16858	
7.18079	
7.17926	
7.17621	
7.17316	
7.17468	
7.17773	
7.17621	
7.1701	
7.17468	
7.18384	
7.19452	
7.18994	
7.17926	
7.17621	
7.17316	
7.17163	
7.16858	
7.1701	
7.1701	
7.16705	
7.17468	
7.17468	
7.17926	
7.16858	
7.16553	
7.164	
7.1701	
7.1701	
7.1701	
7.17468	
7.17316	
7.17468	
7.1701	
7.16553	
7.16248	
7.16705	
7.16248	
7.17773	
7.17468	
7.1701	
7.16553	
7.17316	
7.17163	
7.1701	
7.17163	
7.16858	
7.1701	
7.164	
7.17163	
7.1701	
7.17926	
7.1701	
7.16705	
7.17621	
7.17163	
7.17773	
7.17163	
7.17163	
7.17163	
7.1701	
7.1701	
7.16705	
7.16248	
7.1701	
7.16705	
7.17316	
7.17621	
7.17468	
7.17316	
7.16705	
7.17468	
7.17468	
7.17468	
7.17163	
7.17468	
7.16705	
7.17316	
7.17926	
7.18384	
7.18079	
7.17468	
7.18079	
7.17621	
7.17316	
7.16553	
7.15942	
7.164	
7.16858	
7.17316	
7.17316	
7.1701	
7.17621	
7.17163	
7.1701	
7.1701	
7.17316	
7.17316	
7.17163	
7.17773	
7.17621	
7.17926	
7.17316	
7.16705	
7.1701	
7.16705	
7.16858	
7.164	
7.18079	
7.17468	
7.16858	
7.17773	
7.18536	
7.17163	
7.16705	
7.16858	
7.16705	
7.16553	
7.16858	
7.17621	
7.17926	
7.18384	
7.18536	
7.18384	
7.18079	
7.17926	
7.17316	
7.1701	
7.16858	
7.17468	
7.17163	
7.17621	
7.17621	
7.17926	
7.17926	
7.17621	
7.17468	
7.17468	
7.17316	
7.17468	
7.17316	
7.17468	
7.17773	
7.17773	
7.17468	
7.17926	
7.17621	
7.17316	
7.16858	
7.1701	
7.17316	
7.17621	
7.17316	
7.1701	
7.17163	
7.17163	
7.17468	
7.1701	
7.1701	
7.1701	
7.17163	
7.17621	
7.17621	
7.16858	
7.17163	
7.17163	
7.17773	
7.17926	
7.18079	
7.17926	
7.17316	
7.17773	
7.17773	
7.17926	
7.17163	
7.16858	
7.16553	
7.1701	
7.16858	
7.16705	
7.16858	
7.16705	
7.16858	
7.1701	
7.17163	
7.17316	
7.17163	
7.1701	
7.16858	
7.16858	
7.17163	
7.16858	
7.17316	
7.17926	
7.17468	
7.17773	
7.17316	
7.17621	
7.16705	
7.17621	
7.17773	
7.18384	
7.17468	
7.17468	
7.17163	
7.17468	
7.17163	
7.17163	
7.17163	
7.16858	
7.1701	
7.19604	
7.18994	
7.17773	
7.17621	
7.17621	
7.16553	
7.16858	
7.17163	
7.17163	
7.164	
7.16248	
7.16705	
7.17163	
7.17316	
7.17163	
7.16553	
7.16858	
7.1701	
7.17163	
7.1701	
7.16858	
7.17316	
7.17468	
7.17468	
7.17316	
7.1701	
7.17316	
7.17468	
7.17316	
7.17621	
7.17316	
7.17468	
7.17316	
7.1701	
7.17316	
7.16705	
7.164	
7.15942	
7.16705	
7.16858	
7.1701	
7.16248	
7.164	
7.16858	
7.1701	
7.17163	
7.17163	
7.17316	
7.1701	
7.17163	
7.16705	
7.16705	
7.16705	
7.16705	
7.16705	
7.16858	
7.16705	
7.16248	
7.16248	
7.15637	
7.16553	
7.16858	
7.17316	
7.16705	
7.16705	
7.164	
7.164	
7.16858	
7.164	
7.16553	
7.16095	
7.16095	
7.1701	
7.16705	
7.16248	
7.16553	
7.164	
7.17163	
7.1701	
7.16858	
7.16705	
7.1701	
7.16553	
7.16553	
7.1701	
7.164	
7.17163	
7.17163	
7.17163	
7.17468	
7.17926	
7.17316	
7.17163	
7.1701	
7.16858	
7.16858	
7.16553	
7.16248	
7.16095	
7.17621	
7.18384	
7.17621	
7.17163	
7.1701	
7.16705	
7.16858	
7.16553	
7.16553	
7.17163	
7.16705	
7.1701	
7.1701	
7.17316	
7.16553	
7.16553	
7.15637	
7.164	
7.16248	
7.16248	
7.164	
7.16248	
7.18536	
7.17773	
7.17468	
7.17468	
7.17468	
7.16858	
7.16858	
7.17163	
7.1701	
7.17163	
7.17468	
7.17316	
7.16553	
7.1701	
7.16095	
7.164	
7.164	
7.16705	
7.17163	
7.17468	
7.16858	
7.16553	
7.16553	
7.16248	
7.16248	
7.16248	
7.16553	
7.16248	
7.1701	
7.1701	
7.17316	
7.1701	
7.1701	
7.1701	
7.16705	
7.16705	
7.16248	
7.16705	
7.16248	
7.16705	
7.16553	
7.16858	
7.16095	
7.16858	
7.16858	
7.17316	
7.17316	
7.17621	
7.17163	
7.1701	
7.1701	
7.16858	
7.17163	
7.17163	
7.17773	
7.17621	
7.17773	
7.17316	
7.17621	
7.1701	
7.17163	
7.16705	
7.164	
7.16705	
7.16553	
7.1701	
7.16553	
7.16553	
7.16095	
7.16095	
7.16248	
7.1579	
7.16553	
7.16705	
7.164	
7.164	
7.16705	
7.16705	
7.17163	
7.16858	
7.1701	
7.16705	
7.16248	
7.16705	
7.16705	
7.16553	
7.17316	
7.17163	
7.164	
7.16858	
7.1701	
7.17621	
7.17316	
7.17316	
7.16553	
7.17621	
7.17773	
7.16553	
7.16248	
7.15942	
7.18079	
7.17468	
7.17621	
7.16553	
7.164	
7.16705	
7.16553	
7.16705	
7.16858	
7.164	
7.16553	
7.16553	
7.17163	
7.17468	
7.16858	
7.17316	
7.164	
7.17163	
7.17163	
7.17926	
7.17621	
7.17316	
7.17926	
7.17468	
7.17163	
7.164	
7.16858	
7.16553	
7.16858	
7.17316	
7.17468	
7.17163	
7.16553	
7.16095	
7.1579	
7.15942	
7.16553	
7.1701	
7.15942	
7.17163	
7.16858	
7.16858	
7.164	
7.15942	
7.16248	
7.16705	
7.1701	
7.16705	
7.1701	
7.16705	
7.16705	
7.16553	
7.16553	
7.15942	
7.16095	
7.16553	
7.1701	
7.16705	
7.17621	
7.17468	
7.17163	
7.17621	
7.17621	
7.17621	
7.1701	
7.16858	
7.1701	
7.17621	
7.17163	
7.18079	
7.17468	
7.17468	
7.17316	
7.17316	
7.17468	
7.17468	
7.17316	
7.16858	
7.16705	
7.16248	
7.164	
7.16705	
7.17163	
7.16705	
7.17773	
7.17468	
7.17316	
7.17163	
7.16705	
7.17163	
7.17163	
7.17163	
7.16553	
7.16858	
7.16858	
7.16858	
7.17163	
7.16248	
7.16705	
7.17773	
7.19147	
7.18536	
7.17926	
7.17163	
7.16858	
7.16858	
7.16553	
7.16858	
7.17621	
7.18079	
7.17926	
7.18384	
7.18536	
7.18689	
7.17468	
7.17773	
7.1701	
7.1701	
7.16553	
7.15942	
7.15637	
7.16248	
7.17773	
7.17621	
7.17773	
7.17163	
7.17163	
7.17316	
7.17468	
7.17316	
7.17621	
7.16705	
7.16553	
7.16705	
7.16705	
7.16553	
7.1701	
7.17163	
7.16858	
7.17163	
7.16553	
7.17316	
7.164	
7.17163	
7.16858	
7.17468	
7.1701	
7.17316	
7.17163	
7.16858	
7.17163	
7.16705	
7.16705	
7.16705	
7.16858	
7.16705	
7.1701	
7.17163	
7.1701	
7.16858	
7.17316	
7.17468	
7.17163	
7.17773	
7.16553	
7.16705	
7.164	
7.17163	
7.16858	
7.16858	
7.164	
7.16553	
7.16553	
7.16553	
7.16705	
7.16095	
7.15637	
7.15942	
7.16248	
7.16095	
7.16553	
7.16248	
7.16553	
7.16553	
7.16553	
7.15942	
7.15942	
7.16248	
7.16095	
7.164	
7.15942	
7.15027	
7.14722	
7.16095	
7.16553	
7.17163	
7.17163	
7.1701	
7.17468	
7.19452	
7.18536	
7.17773	
7.17316	
7.15942	
7.1579	
7.15485	
7.15027	
7.1579	
7.1579	
7.15637	
7.164	
7.16095	
7.164	
7.16705	
7.164	
7.16858	
7.16095	
7.16553	
7.16553	
7.17316	
7.16553	
7.164	
7.17163	
7.17316	
7.16858	
7.16553	
7.16705	
7.16095	
7.1701	
7.16858	
7.1701	
7.16705	
7.16705	
7.164	
7.16095	
7.14874	
7.14264	
7.15332	
7.15485	
7.164	
7.16248	
7.1701	
7.15942	
7.164	
7.15637	
7.15942	
7.15942	
7.16095	
7.164	
7.15942	
7.164	
7.16248	
7.16248	
7.15485	
7.15942	
7.16095	
7.16248	
7.164	
7.164	
7.164	
7.17316	
7.16858	
7.16248	
7.16553	
7.1579	
7.1579	
7.15485	
7.16095	
7.16248	
7.16858	
7.15637	
7.16095	
7.164	
7.16553	
7.16553	
7.16248	
7.16095	
7.15942	
7.16248	
7.15637	
7.15637	
7.15485	
7.15637	
7.15332	
7.15332	
7.15332	
7.16095	
7.1701	
7.15942	
7.164	
7.164	
7.16705	
7.15485	
7.15332	
7.14722	
7.15637	
7.1579	
7.18079	
7.17316	
7.16553	
7.16248	
7.16553	
7.16553	
7.16248	
7.16095	
7.164	
7.16705	
7.16553	
7.16248	
7.16095	
7.16553	
7.164	
7.16095	
7.16705	
7.16248	
7.164	
7.1579	
7.164	
7.16248	
7.16095	
7.15942	
7.15942	
7.16553	
7.16248	
7.16705	
7.16095	
7.15942	
7.1579	
7.16248	
7.16248	
7.16095	
7.16095	
7.16095	
7.16095	
7.164	
7.15637	
7.15637	
7.15942	
7.15332	
7.15637	
7.15942	
7.16248	
7.15942	
7.15332	
7.15332	
7.16095	
7.16248	
7.15942	
7.16553	
7.16248	
7.164	
7.164	
7.16248	
7.15637	
7.14874	
7.16095	
7.16858	
7.16705	
7.16248	
7.15637	
7.1579	
7.14722	
7.14111	
7.14722	
7.14722	
7.15637	
7.16248	
7.16705	
7.16248	
7.16705	
7.16095	
7.15942	
7.16553	
7.16705	
7.16858	
7.16248	
7.16248	
7.16095	
7.16858	
7.16705	
7.16858	
7.164	
7.16248	
7.16248	
7.16553	
7.15637	
7.16553	
7.16248	
7.15485	
7.15942	
7.164	
7.164	
7.1579	
7.16095	
7.15637	
7.16248	
7.16248	
7.164	
7.16095	
7.16553	
7.16553	
7.164	
7.16553	
7.16095	
7.164	
7.164	
7.16858	
7.15942	
7.16095	
7.15942	
7.16095	
7.16095	
7.15485	
7.15942	
7.16858	
7.164	
7.15332	
7.16095	
7.15637	
7.1701	
7.16095	
7.16553	
7.16705	
7.164	
7.16095	
7.1579	
7.16095	
7.16095	
7.1579	
7.15942	
7.16095	
7.15485	
7.16705	
7.16553	
7.164	
7.16248	
7.1579	
7.16095	
7.15485	
7.15942	
7.16095	
7.16705	
7.16553	
7.16553	
7.16553	
7.16705	
7.16248	
7.1579	
7.16705	
7.17316	
7.1701	
7.15942	
7.15942	
7.1579	
7.16095	
7.16705	
7.16858	
7.16553	
7.16705	
7.16858	
7.164	
7.16095	
7.16248	
7.1701	
7.164	
7.16095	
7.16553	
7.17163	
7.16248	
7.17316	
7.16705	
7.16705	
7.1701	
7.164	
7.16705	
7.15942	
7.15485	
7.16095	
7.16553	
7.16553	
7.16553	
7.15485	
7.1579	
7.15942	
7.164	
7.1579	
7.16095	
7.16248	
7.15942	
7.16248	
7.15942	
7.16858	
7.16095	
7.16248	
7.16248	
7.164	
7.16095	
7.164	
7.16858	
7.16858	
7.1701	
7.16553	
7.164	
7.15637	
7.15485	
7.15637	
7.15942	
7.15332	
7.15942	
7.15942	
7.16553	
7.1701	
7.16858	
7.17163	
7.16553	
7.16858	
7.164	
7.18079	
7.17621	
7.17468	
7.1701	
7.1701	
7.17163	
7.16858	
7.16858	
7.16095	
7.16095	
7.16858	
7.1701	
7.1701	
7.164	
7.15942	
7.16858	
7.16553	
7.15485	
7.14874	
7.14722	
7.14874	
7.15332	
7.18384	
7.17163	
7.17316	
7.16553	
7.16858	
7.164	
7.17163	
7.17316	
7.16705	
7.16705	
7.164	
7.17163	
7.1701	
7.17468	
7.16705	
7.16705	
7.16095	
7.164	
7.16705	
7.1701	
7.16705	
7.1701	
7.1701	
7.17316	
7.17621	
7.16858	
7.16553	
7.164	
7.16705	
7.16553	
7.16858	
7.16553	
7.16095	
7.16095	
7.16553	
7.1701	
7.16248	
7.16248	
7.16705	
7.17316	
7.17621	
7.17468	
7.16705	
7.17163	
7.16705	
7.17316	
7.17163	
7.16705	
7.16858	
7.16248	
7.16248	
7.164	
7.164	
7.15485	
7.15332	
7.15332	
7.15942	
7.16553	
7.16705	
7.16553	
7.164	
7.16553	
7.16248	
7.16248	
7.1579	
7.15485	
7.15027	
7.16095	
7.17316	
7.17163	
7.16705	
7.17468	
7.17163	
7.16858	
7.1701	
7.16705	
7.164	
7.16095	
7.16705	
7.1701	
7.17316	
7.16858	
7.1701	
7.16248	
7.15942	
7.15637	
7.16248	
7.16705	
7.17316	
7.16858	
7.16248	
7.16705	
7.16553	
7.16858	
7.16705	
7.1701	
7.16248	
7.16248	
7.16705	
7.15942	
7.16705	
7.164	
7.16705	
7.164	
7.16705	
7.16553	
7.1701	
7.1701	
7.16553	
7.164	
7.164	
7.164	
7.16553	
7.15942	
7.16248	
7.16858	
7.164	
7.16858	
7.16248	
7.164	
7.16095	
7.16553	
7.16553	
7.16248	
7.16705	
7.16553	
7.16553	
7.164	
7.16858	
7.16248	
7.164	
7.16095	
7.16095	
7.16553	
7.16858	
7.1701	
7.164	
7.164	
7.164	
7.16858	
7.1701	
7.16858	
7.16705	
7.16705	
7.16095	
7.16248	
7.16095	
7.15637	
7.164	
7.15942	
7.164	
7.164	
7.17163	
7.16553	
7.16553	
7.164	
7.1701	
7.17316	
7.16705	
7.16248	
7.1579	
7.15942	
7.15637	
7.16858	
7.16858	
7.16705	
7.16705	
7.1701	
7.16858	
7.1701	
7.16553	
7.17163	
7.17316	
7.1701	
7.17468	
7.16553	
7.16858	
7.164	
7.16095	
7.14264	
7.13654	
7.16248	
7.17773	
7.17163	
7.16705	
7.17163	
7.164	
7.16248	
7.16248	
7.16553	
7.16705	
7.17163	
7.16553	
7.15942	
7.16095	
7.16858	
7.16095	
7.1701	
7.16553	
7.164	
7.16858	
7.164	
7.16553	
7.15485	
7.15332	
7.15332	
7.15637	
7.15942	
7.16095	
7.15942	
7.15637	
7.16248	
7.16095	
7.16248	
7.15942	
7.15637	
7.15942	
7.164	
7.164	
7.164	
7.15942	
7.16705	
7.16705	
7.16858	
7.1701	
7.16553	
7.15942	
7.14722	
7.16095	
7.15942	
7.16095	
7.1579	
7.15637	
7.16095	
7.15332	
7.15942	
7.16858	
7.1701	
7.16858	
7.1701	
7.16248	
7.164	
7.15637	
7.15637	
7.16248	
7.16705	
7.16248	
7.16095	
7.164	
7.16095	
7.16553	
7.16248	
7.16248	
7.15332	
7.15485	
7.14569	
7.15637	
7.16095	
7.16248	
7.164	
7.15942	
7.16095	
7.164	
7.17163	
7.16858	
7.164	
7.16095	
7.164	
7.15942	
7.15637	
7.16095	
7.17163	
7.16553	
7.16553	
7.1701	
7.15942	
7.16248	
7.15637	
7.16248	
7.15637	
7.1579	
7.16248	
7.1579	
7.1579	
7.15637	
7.16705	
7.15637	
7.15637	
7.16248	
7.15942	
7.16095	
7.16248	
7.16095	
7.164	
7.15942	
7.16095	
7.16095	
7.15942	
7.16095	
7.15637	
7.164	
7.15637	
7.16248	
7.15485	
7.15637	
7.15332	
7.15485	
7.15637	
7.15485	
7.15332	
7.15942	
7.164	
7.16553	
7.16553	
7.15942	
7.16095	
7.16095	
7.1579	
7.1579	
7.15637	
7.14722	
7.15637	
7.15637	
7.15637	
7.15942	
7.15332	
7.15332	
7.15485	
7.15942	
7.15027	
7.15485	
7.14722	
7.15942	
7.16095	
7.15942	
7.16248	
7.16095	
7.1579	
7.1579	
7.15637	
7.15637	
7.15485	
7.15332	
7.1579	
7.15027	
7.15485	
7.14874	
7.14722	
7.14722	
7.14569	
7.15637	
7.15942	
7.16248	
7.15942	
7.15942	
7.15637	
7.164	
7.16553	
7.15637	
7.1579	
7.15637	
7.15485	
7.15485	
7.15485	
7.14722	
7.14417	
7.14417	
7.1579	
7.16095	
7.16095	
7.15027	
7.15027	
7.15332	
7.15332	
7.15942	
7.15332	
7.15332	
7.14417	
7.15332	
7.15332	
7.15485	
7.14569	
7.14417	
7.1579	
7.15942	
7.15485	
7.14874	
7.14874	
7.14874	
7.15027	
7.15332	
7.15332	
7.15637	
7.15637	
7.15637	
7.15942	
7.15637	
7.15637	
7.15027	
7.14417	
7.15637	
7.15332	
7.1579	
7.15485	
7.15332	
7.14874	
7.15485	
7.15027	
7.15637	
7.15332	
7.14874	
7.15027	
7.15027	
7.15027	
7.14722	
7.15332	
7.15485	
7.1579	
7.15637	
7.15027	
7.13959	
7.14722	
7.14417	
7.14874	
7.15637	
7.14569	
7.14569	
7.14874	
7.16248	
7.1579	
7.14874	
7.14722	
7.14874	
7.14722	
7.14111	
7.14569	
7.13501	
7.13196	
7.13348	
7.14264	
7.14417	
7.14111	
7.13959	
7.13959	
7.13959	
7.14111	
7.13654	
7.13501	
7.13959	
7.13043	
7.13654	
7.13501	
7.14264	
7.13959	
7.14417	
7.14417	
7.15027	
7.15485	
7.14874	
7.15332	
7.14874	
7.15485	
7.14722	
7.14264	
7.14111	
7.14264	
7.13806	
7.14111	
7.14874	
7.14722	
7.14264	
7.14722	
7.14569	
7.14264	
7.15332	
7.14264	
7.14264	
7.13501	
7.14264	
7.14569	
7.15332	
7.14722	
7.14874	
7.15637	
7.15637	
7.15942	
7.14874	
7.14874	
7.15027	
7.15485	
7.15637	
7.14569	
7.14111	
7.13654	
7.13806	
7.14264	
7.15332	
7.15485	
7.14569	
7.13959	
7.14569	
7.14569	
7.14722	
7.14417	
7.14111	
7.13959	
7.14111	
7.14264	
7.13806	
7.14417	
7.15027	
7.15027	
7.14874	
7.14722	
7.14569	
7.14569	
7.14417	
7.14874	
7.14874	
7.15485	
7.14874	
7.15027	
7.14722	
7.14264	
7.14874	
7.14111	
7.14111	
7.13959	
7.14417	
7.14417	
7.14111	
7.13806	
7.14722	
7.14874	
7.14722	
7.14874	
7.14417	
7.14264	
7.14417	
7.15027	
7.14569	
7.14874	
7.14722	
7.14417	
7.14111	
7.14264	
7.13959	
7.14111	
7.14264	
7.14111	
7.14264	
7.14111	
7.16553	
7.15637	
7.14874	
7.14417	
7.14874	
7.15637	
7.14874	
7.15332	
7.14874	
7.15485	
7.15485	
7.15027	
7.14874	
7.14722	
7.14569	
7.14874	
7.14569	
7.15485	
7.15332	
7.15027	
7.15332	
7.15027	
7.1579	
7.14874	
7.14874	
7.13959	
7.14417	
7.14874	
7.14874	
7.14874	
7.15332	
7.14264	
7.14722	
7.15637	
7.15027	
7.14569	
7.14417	
7.14417	
7.13959	
7.13654	
7.14264	
7.15332	
7.14874	
7.14874	
7.14722	
7.14264	
7.13959	
7.14111	
7.14417	
7.15942	
7.16705	
7.15485	
7.15485	
7.15332	
7.15027	
7.1579	
7.14874	
7.15027	
7.15027	
7.14874	
7.13959	
7.14417	
7.14417	
7.15332	
7.14569	
7.15637	
7.15485	
7.15485	
7.15332	
7.15637	
7.15332	
7.14874	
7.15637	
7.14417	
7.15027	
7.15027	
7.15332	
7.15027	
7.1579	
7.15027	
7.15485	
7.15637	
7.15637	
7.14874	
7.15332	
7.15332	
7.14874	
7.14874	
7.14874	
7.14569	
7.14417	
7.14264	
7.14111	
7.14264	
7.14111	
7.14417	
7.14111	
7.13959	
7.14569	
7.14569	
7.14417	
7.13043	
7.13959	
7.13654	
7.14111	
7.14417	
7.13806	
7.13959	
7.13654	
7.14111	
7.14722	
7.14111	
7.13959	
7.13806	
7.13806	
7.14417	
7.14111	
7.14722	
7.14264	
7.14722	
7.14264	
7.14264	
7.14874	
7.13654	
7.14874	
7.15485	
7.14874	
7.15027	
7.15485	
7.14569	
7.14264	
7.14874	
7.14722	
7.14874	
7.14722	
7.14417	
7.14417	
7.14722	
7.14874	
7.14874	
7.14569	
7.14264	
7.14111	
7.14417	
7.14417	
7.14874	
7.14264	
7.13959	
7.14874	
7.14569	
7.14874	
7.13959	
7.13959	
7.13806	
7.14264	
7.13654	
7.13806	
7.13959	
7.15027	
7.15637	
7.15027	
7.14417	
7.13654	
7.14111	
7.14722	
7.15332	
7.14874	
7.14569	
7.14874	
7.15332	
7.14722	
7.14417	
7.14722	
7.13654	
7.13348	
7.13043	
7.14111	
7.13501	
7.14111	
7.14417	
7.14417	
7.14111	
7.14874	
7.15332	
7.14874	
7.14417	
7.15027	
7.15027	
7.15027	
7.14569	
7.14111	
7.13959	
7.13501	
7.13959	
7.14264	
7.14417	
7.14722	
7.14264	
7.14874	
7.14874	
7.15485	
7.14264	
7.14111	
7.13654	
7.14569	
7.14264	
7.14417	
7.14264	
7.13501	
7.14417	
7.14874	
7.14111	
7.14417	
7.13654	
7.14264	
7.14569	
7.14111	
7.14111	
7.14111	
7.14569	
7.13959	
7.13959	
7.14111	
7.13196	
7.13654	
7.13654	
7.14417	
7.14111	
7.13959	
7.13196	
7.13654	
7.13806	
7.13501	
7.13959	
7.13196	
7.13501	
7.13806	
7.14111	
7.13959	
7.13654	
7.13348	
7.13043	
7.13196	
7.13196	
7.13501	
7.14111	
7.13959	
7.13348	
7.13806	
7.13043	
7.13501	
7.13196	
7.13501	
7.13043	
7.13654	
7.13806	
7.14264	
7.14264	
7.14264	
7.14569	
7.14264	
7.13806	
7.13043	
7.12585	
7.13348	
7.13196	
7.12585	
7.12433	
7.1228	
7.12738	
7.13654	
7.13806	
7.13654	
7.13043	
7.13348	
7.12433	
7.13348	
7.13654	
7.13959	
7.14111	
7.14111	
7.14111	
7.14264	
7.13959	
7.13501	
7.13654	
7.13959	
7.13806	
7.14111	
7.13959	
7.13806	
7.13501	
7.12738	
7.13348	
7.14264	
7.13959	
7.13501	
7.13348	
7.13654	
7.13806	
7.13806	
7.13043	
7.13196	
7.12891	
7.13348	
7.13654	
7.13196	
7.13043	
7.12738	
7.12585	
7.12738	
7.13043	
7.12891	
7.12891	
7.12891	
7.13348	
7.13806	
7.13501	
7.12891	
7.13043	
7.13348	
7.13043	
7.14111	
7.13501	
7.13654	
7.12585	
7.13196	
7.13043	
7.13196	
7.13348	
7.13348	
7.13806	
7.13501	
7.13196	
7.13043	
7.13043	
7.13501	
7.13196	
7.13196	
7.12433	
7.12738	
7.13196	
7.13043	
7.13348	
7.13196	
7.13348	
7.13043	
7.13348	
7.13654	
7.13501	
7.13501	
7.13196	
7.13501	
7.12891	
7.12585	
7.12433	
7.12433	
7.13043	
7.13196	
7.13196	
7.13501	
7.13501	
7.13196	
7.13196	
7.12738	
7.12433	
7.1228	
7.1228	
7.12738	
7.14264	
7.14417	
7.13654	
7.13196	
7.12891	
7.13501	
7.12891	
7.13501	
7.13654	
7.13806	
7.13196	
7.12433	
7.12891	
7.12891	
7.12891	
7.12585	
7.12585	
7.12891	
7.12891	
7.13043	
7.13043	
7.12738	
7.12891	
7.12891	
7.12738	
7.13196	
7.13043	
7.13654	
7.13043	
7.13959	
7.13806	
7.13959	
7.13043	
7.13348	
7.12738	
7.13196	
7.12891	
7.13196	
7.13043	
7.12433	
7.13348	
7.13348	
7.13196	
7.12891	
7.12738	
7.12891	
7.13043	
7.12891	
7.13501	
7.13196	
7.13348	
7.13196	
7.13043	
7.13654	
7.13043	
7.13654	
7.12891	
7.13348	
7.13196	
7.12433	
7.12585	
7.12891	
7.12891	
7.13043	
7.13348	
7.1228	
7.1167	
7.11975	
7.1228	
7.12585	
7.12585	
7.12585	
7.12738	
7.12891	
7.13043	
7.12738	
7.11975	
7.1228	
7.1167	
7.12585	
7.12738	
7.13348	
7.12891	
7.12738	
7.12433	
7.12891	
7.13654	
7.13501	
7.12738	
7.13196	
7.13806	
7.14111	
7.13806	
7.13654	
7.13043	
7.12585	
7.12738	
7.12738	
7.13043	
7.13501	
7.13654	
7.13806	
7.13501	
7.13959	
7.13196	
7.13043	
7.12433	
7.13043	
7.13348	
7.13654	
7.13348	
7.13196	
7.13501	
7.13501	
7.13501	
7.13043	
7.12585	
7.12585	
7.12891	
7.14111	
7.14264	
7.13348	
7.12738	
7.12585	
7.13043	
7.12738	
7.12738	
7.12738	
7.11212	
7.12738	
7.12891	
7.12891	
7.11823	
7.11517	
7.11517	
7.12891	
7.13196	
7.13196	
7.12891	
7.13043	
7.13348	
7.12891	
7.12891	
7.11823	
7.10449	
7.10297	
7.11975	
7.12738	
7.14417	
7.13806	
7.13806	
7.13959	
7.13348	
7.14111	
7.12891	
7.12433	
7.1228	
7.13043	
7.12891	
7.13043	
7.12891	
7.1228	
7.1167	
7.11517	
7.1167	
7.12738	
7.13043	
7.13043	
7.13501	
7.13196	
7.13348	
7.13348	
7.12891	
7.13043	
7.12891	
7.11975	
7.12433	
7.12433	
7.11823	
7.12891	
7.13043	
7.13196	
7.12585	
7.13196	
7.12891	
7.13806	
7.13501	
7.12738	
7.13043	
7.1228	
7.1228	
7.12433	
7.1167	
7.11517	
7.12585	
7.1228	
7.12738	
7.1228	
7.12433	
7.12585	
7.12891	
7.12891	
7.12738	
7.13501	
7.12433	
7.12738	
7.12433	
7.13043	
7.12433	
7.12738	
7.12433	
7.1228	
7.1228	
7.12433	
7.12433	
7.1167	
7.11823	
7.12738	
7.12585	
7.11975	
7.11975	
7.1228	
7.13043	
7.13196	
7.13043	
7.12585	
7.12433	
7.12891	
7.11823	
7.12891	
7.12738	
7.13348	
7.13348	
7.13654	
7.13043	
7.13043	
7.12585	
7.11975	
7.11823	
7.11517	
7.10907	
7.10602	
7.11212	
7.11365	
7.1106	
7.1106	
7.11517	
7.11517	
7.11517	
7.1167	
7.1228	
7.11975	
7.11975	
7.12891	
7.11823	
7.12433	
7.1167	
7.1228	
7.11823	
7.12585	
7.12585	
7.1167	
7.12433	
7.12585	
7.12891	
7.1228	
7.11975	
7.12585	
7.12585	
7.12585	
7.12585	
7.12433	
7.11975	
7.11975	
7.12738	
7.12585	
7.12585	
7.12738	
7.1167	
7.12891	
7.12891	
7.13348	
7.13043	
7.12891	
7.12738	
7.13196	
7.12891	
7.12585	
7.1228	
7.1228	
7.12738	
7.13043	
7.12891	
7.13043	
7.12738	
7.12433	
7.12891	
7.12585	
7.11975	
7.11823	
7.11975	
7.12433	
7.12585	
7.13959	
7.12433	
7.12738	
7.12433	
7.12891	
7.11975	
7.11823	
7.11823	
7.11212	
7.11517	
7.12433	
7.12585	
7.11212	
7.1106	
7.11365	
7.11823	
7.11975	
7.11517	
7.10754	
7.11212	
7.11517	
7.11975	
7.11975	
7.11823	
7.11975	
7.11212	
7.11823	
7.12433	
7.12891	
7.1167	
7.11823	
7.11517	
7.11975	
7.12433	
7.1228	
7.11975	
7.11517	
7.1167	
7.1167	
7.11517	
7.11212	
7.1167	
7.11365	
7.11365	
7.11517	
7.11365	
7.11212	
7.11517	
7.11212	
7.11975	
7.13806	
7.13043	
7.12433	
7.11212	
7.12433	
7.11823	
7.12738	
7.11517	
7.11365	
7.11975	
7.11823	
7.11975	
7.1167	
7.11212	
7.1167	
7.11975	
7.1167	
7.1167	
7.11823	
7.11975	
7.1167	
7.11517	
7.11365	
7.10907	
7.1167	
7.1106	
7.1167	
7.11365	
7.1167	
7.1167	
7.12585	
7.12433	
7.12738	
7.1228	
7.1228	
7.11975	
7.11823	
7.12585	
7.11823	
7.1167	
7.11823	
7.11975	
7.1167	
7.11365	
7.10602	
7.11365	
7.10602	
7.10754	
7.1106	
7.11517	
7.12433	
7.11365	
7.11517	
7.11365	
7.11823	
7.1167	
7.1167	
7.11365	
7.11517	
7.11823	
7.11365	
7.11517	
7.10907	
7.11212	
7.1106	
7.12738	
7.12891	
7.12738	
7.12585	
7.12585	
7.11517	
7.1167	
7.11517	
7.12738	
7.1228	
7.1167	
7.1228	
7.12433	
7.13043	
7.11823	
7.11365	
7.11212	
7.1106	
7.11517	
7.10754	
7.10754	
7.11212	
7.12585	
7.12738	
7.1228	
7.11823	
7.11975	
7.12433	
7.12433	
7.12585	
7.12585	
7.1228	
7.12585	
7.12433	
7.11823	
7.12585	
7.11212	
7.11365	
7.10907	
7.10907	
7.10754	
7.10907	
7.1106	
7.11212	
7.11517	
7.11365	
7.1228	
7.1167	
7.11975	
7.1167	
7.11517	
7.11823	
7.10907	
7.1106	
7.11823	
7.11212	
7.11975	
7.11517	
7.11212	
7.10754	
7.09686	
7.11212	
7.1167	
7.1228	
7.11212	
7.10907	
7.10907	
7.11212	
7.11975	
7.1167	
7.11517	
7.11517	
7.11517	
7.11365	
7.11975	
7.11517	
7.11517	
7.1167	
7.1228	
7.11365	
7.10907	
7.11212	
7.11975	
7.11517	
7.1106	
7.11517	
7.10754	
7.1106	
7.10754	
7.1167	
7.1167	
7.1167	
7.1106	
7.10754	
7.10449	
7.10449	
7.10144	
7.10449	
7.11975	
7.11975	
7.11517	
7.11365	
7.1228	
7.12585	
7.11975	
7.1106	
7.10754	
7.10907	
7.10754	
7.1106	
7.10602	
7.1106	
7.10907	
7.1228	
7.11517	
7.11212	
7.10602	
7.10754	
7.10754	
7.10602	
7.10144	
7.09839	
7.10907	
7.11365	
7.10449	
7.09991	
7.10602	
7.11212	
7.11517	
7.11823	
7.11823	
7.1167	
7.11823	
7.1167	
7.11365	
7.11365	
7.10602	
7.1106	
7.11212	
7.11517	
7.11823	
7.1228	
7.11517	
7.10754	
7.09991	
7.09839	
7.10297	
7.09839	
7.09991	
7.10144	
7.10754	
7.10449	
7.10754	
7.09991	
7.10144	
7.10297	
7.10449	
7.10144	
7.10297	
7.10144	
7.10297	
7.10907	
7.10449	
7.1106	
7.09991	
7.10754	
7.10144	
7.10754	
7.1106	
7.10907	
7.10602	
7.10449	
7.1106	
7.10449	
7.10449	
7.10602	
7.10754	
7.10449	
7.10754	
7.10907	
7.11212	
7.10602	
7.10907	
7.10602	
7.11517	
7.12433	
7.11212	
7.11212	
7.10754	
7.11517	
7.11975	
7.11823	
7.11365	
7.11212	
7.10754	
7.10449	
7.10754	
7.09991	
7.09991	
7.09686	
7.09839	
7.09991	
7.09839	
7.09991	
7.1106	
7.1228	
7.1167	
7.1106	
7.10907	
7.1106	
7.10297	
7.1106	
7.10754	
7.1106	
7.10449	
7.1106	
7.10602	
7.11517	
7.11212	
7.10907	
7.10754	
7.10602	
7.1106	
7.10907	
7.11212	
7.10907	
7.10449	
7.10297	
7.09839	
7.10449	
7.10449	
7.09839	
7.10297	
7.09991	
7.10754	
7.10907	
7.09839	
7.10144	
7.09686	
7.10449	
7.10907	
7.11212	
7.10602	
7.10754	
7.11517	
7.11365	
7.11823	
7.11365	
7.11823	
7.11517	
7.11365	
7.11212	
7.1106	
7.10907	
7.10602	
7.09991	
7.09534	
7.09534	
7.09381	
7.09229	
7.08771	
7.09686	
7.08923	
7.09686	
7.08771	
7.09381	
7.08618	
7.10449	
7.11212	
7.11212	
7.10754	
7.10602	
7.10907	
7.10754	
7.11212	
7.10602	
7.10602	
7.10449	
7.10754	
7.10754	
7.10754	
7.10907	
7.11517	
7.1167	
7.10449	
7.11365	
7.10907	
7.10907	
7.09229	
7.09686	
7.10449	
7.10602	
7.10297	
7.09839	
7.10144	
7.09991	
7.10449	
7.09839	
7.09991	
7.09839	
7.10907	
7.10907	
7.10602	
7.09839	
7.09534	
7.09229	
7.09534	
7.09839	
7.10144	
7.11212	
7.10297	
7.10602	
7.10449	
7.10449	
7.09534	
7.10144	
7.10449	
7.10907	
7.11365	
7.10907	
7.10602	
7.10144	
7.11212	
7.10754	
7.10754	
7.10297	
7.10297	
7.10297	
7.10449	
7.10602	
7.09534	
7.08466	
7.09534	
7.09229	
7.09534	
7.09839	
7.09534	
7.09686	
7.08923	
7.09991	
7.09991	
7.10144	
7.09686	
7.09381	
7.09686	
7.08771	
7.09381	
7.09229	
7.08771	
7.09534	
7.1106	
7.09686	
7.09534	
7.09229	
7.09686	
7.09839	
7.09686	
7.10144	
7.09686	
7.09839	
7.09381	
7.09839	
7.09534	
7.09686	
7.09229	
7.09534	
7.09534	
7.09839	
7.10602	
7.10449	
7.10602	
7.10907	
7.11517	
7.1106	
7.1106	
7.10602	
7.10297	
7.10602	
7.10602	
7.10449	
7.10144	
7.09991	
7.09991	
7.09686	
7.08771	
7.09381	
7.09381	
7.09991	
7.09229	
7.09381	
7.09686	
7.10144	
7.09686	
7.08771	
7.08771	
7.08923	
7.09686	
7.09381	
7.09686	
7.09839	
7.09839	
7.09381	
7.09839	
7.09381	
7.09534	
7.09686	
7.09534	
7.09229	
7.08923	
7.08771	
7.08008	
7.09229	
7.08313	
7.08618	
7.08771	
7.09991	
7.09839	
7.10907	
7.10144	
7.09686	
7.09686	
7.09229	
7.09381	
7.09534	
7.09839	
7.09839	
7.10449	
7.10144	
7.10602	
7.10144	
7.10449	
7.09991	
7.09991	
7.10449	
7.10297	
7.10602	
7.09686	
7.09534	
7.08618	
7.09229	
7.09229	
7.08771	
7.08008	
7.08008	
7.08008	
7.09534	
7.10449	
7.09381	
7.09991	
7.10144	
7.10297	
7.10602	
7.10602	
7.09686	
7.09839	
7.10297	
7.09991	
7.09839	
7.09229	
7.09381	
7.08923	
7.09839	
7.09534	
7.09839	
7.09381	
7.09839	
7.09686	
7.09686	
7.09991	
7.10144	
7.10907	
7.1106	
7.11517	
7.11212	
7.10907	
7.11212	
7.10449	
7.09839	
7.09839	
7.09534	
7.09229	
7.08771	
7.09381	
7.09686	
7.09534	
7.10602	
7.09229	
7.09686	
7.09229	
7.09686	
7.09534	
7.10144	
7.09991	
7.10297	
7.10144	
7.09991	
7.10144	
7.09534	
7.09534	
7.08923	
7.10144	
7.10144	
7.09534	
7.09381	
7.09229	
7.09534	
7.09381	
7.09686	
7.09381	
7.09381	
7.0816	
7.09229	
7.09534	
7.09839	
7.08771	
7.08923	
7.08618	
7.08618	
7.08466	
7.0755	
7.08771	
7.1167	
7.11823	
7.11365	
7.11212	
7.10297	
7.10449	
7.09991	
7.10144	
7.09991	
7.10449	
7.09839	
7.09839	
7.10144	
7.10144	
7.10297	
7.09839	
7.09839	
7.09839	
7.10297	
7.10449	
7.10602	
7.10449	
7.10602	
7.10754	
7.10144	
7.10449	
7.09381	
7.09686	
7.09686	
7.09534	
7.09686	
7.09839	
7.09686	
7.09381	
7.09229	
7.09381	
7.09381	
7.09686	
7.09534	
7.09381	
7.09991	
7.10602	
7.10907	
7.09991	
7.10144	
7.08771	
7.09381	
7.09534	
7.09534	
7.09686	
7.09229	
7.09839	
7.09229	
7.09534	
7.09534	
7.09534	
7.09229	
7.09839	
7.08771	
7.08771	
7.08313	
7.08771	
7.08466	
7.0816	
7.08466	
7.07855	
7.08771	
7.08618	
7.09229	
7.09229	
7.09229	
7.09229	
7.09686	
7.09839	
7.09381	
7.09534	
7.08923	
7.09534	
7.09991	
7.09991	
7.10144	
7.10449	
7.10449	
7.10144	
7.10297	
7.10297	
7.10449	
7.10144	
7.10297	
7.09381	
7.10449	
7.09839	
7.10297	
7.08618	
7.08618	
7.08008	
7.09686	
7.09229	
7.08618	
7.0816	
7.07703	
7.08771	
7.08618	
7.08771	
7.08771	
7.08618	
7.09229	
7.09381	
7.09839	
7.09381	
7.08923	
7.09991	
7.10297	
7.10144	
7.10754	
7.09839	
7.10297	
7.09839	
7.10144	
7.10144	
7.10297	
7.09381	
7.08618	
7.09381	
7.08923	
7.09686	
7.08771	
7.09229	
7.09381	
7.09534	
7.09991	
7.09839	
7.08923	
7.09381	
7.09686	
7.09991	
7.08923	
7.08618	
7.09686	
7.10297	
7.09839	
7.08771	
7.10602	
7.09534	
7.10602	
7.10297	
7.10907	
7.10754	
7.10754	
7.10602	
7.10754	
7.11365	
7.11365	
7.11212	
7.10602	
7.09991	
7.09686	
7.08618	
7.07855	
7.07245	
7.07397	
7.0816	
7.08618	
7.07703	
7.09381	
7.08771	
7.09229	
7.08923	
7.09534	
7.09229	
7.09229	
7.08923	
7.08618	
7.08923	
7.09381	
7.10297	
7.10144	
7.09381	
7.09229	
7.09991	
7.09534	
7.09381	
7.09534	
7.09381	
7.09381	
7.09686	
7.08618	
7.09229	
7.0816	
7.07703	
7.09229	
7.09686	
7.10449	
7.09381	
7.10144	
7.09839	
7.09991	
7.10144	
7.09991	
7.10449	
7.09991	
7.09991	
7.09534	
7.09534	
7.09534	
7.09381	
7.08313	
7.08466	
7.08923	
7.08466	
7.09229	
7.10297	
7.10297	
7.10297	
7.10602	
7.09534	
7.10144	
7.09839	
7.09991	
7.09381	
7.10297	
7.10449	
7.08923	
7.08923	
7.08771	
7.10754	
7.09381	
7.08771	
7.08008	
7.08771	
7.08923	
7.09686	
7.08923	
7.08313	
7.08618	
7.09534	
7.09229	
7.08771	
7.08618	
7.07855	
7.08771	
7.0816	
7.08466	
7.07703	
7.08618	
7.08313	
7.09229	
7.08771	
7.0816	
7.08771	
7.08313	
7.07703	
7.07855	
7.0755	
7.0755	
7.0816	
7.0816	
7.08771	
7.0816	
7.08466	
7.08313	
7.08618	
7.08618	
7.08313	
7.09686	
7.08618	
7.09229	
7.08466	
7.08771	
7.09381	
7.09381	
7.08923	
7.08466	
7.08923	
7.09229	
7.09229	
7.08618	
7.08466	
7.08618	
7.09229	
7.09229	
7.09229	
7.08771	
7.09229	
7.08771	
7.08466	
7.08466	
7.08466	
7.08618	
7.0816	
7.09686	
7.09381	
7.09839	
7.0755	
7.08466	
7.07855	
7.07245	
7.07245	
7.07855	
7.07855	
7.08008	
7.0816	
7.07855	
7.0816	
7.08466	
7.08008	
7.08618	
7.08313	
7.08313	
7.08466	
7.08313	
7.08923	
7.08618	
7.08313	
7.09381	
7.08008	
7.08313	
7.08313	
7.08618	
7.08008	
7.08923	
7.08008	
7.08313	
7.09381	
7.09229	
7.09381	
7.09229	
7.08923	
7.08923	
7.08923	
7.08771	
7.09381	
7.09381	
7.0816	
7.08923	
7.08313	
7.08618	
7.09229	
7.08618	
7.07703	
7.07855	
7.07245	
7.0816	
7.08313	
7.08466	
7.07855	
7.08313	
7.0816	
7.08313	
7.07855	
7.0816	
7.08618	
7.08466	
7.08008	
7.08008	
7.08313	
7.0816	
7.08771	
7.08618	
7.09229	
7.08923	
7.09686	
7.08923	
7.08923	
7.09839	
7.08466	
7.09229	
7.08618	
7.08313	
7.08313	
7.08771	
7.08008	
7.0694	
7.06329	
7.06635	
7.06482	
7.05719	
7.06635	
7.0755	
7.08008	
7.08313	
7.07855	
7.07703	
7.06787	
7.07092	
7.07703	
7.08466	
7.08008	
7.08466	
7.07855	
7.08313	
7.0816	
7.08618	
7.07855	
7.07703	
7.0694	
7.07855	
7.0816	
7.07703	
7.07703	
7.07703	
7.0816	
7.08466	
7.08618	
7.08618	
7.08771	
7.08313	
7.08313	
7.08008	
7.08008	
7.0755	
7.07855	
7.07855	
7.07703	
7.08618	
7.07397	
7.07245	
7.06635	
7.0755	
7.0755	
7.07397	
7.0694	
7.0755	
7.08313	
7.08008	
7.08008	
7.07703	
7.0755	
7.07703	
7.09229	
7.09229	
7.08618	
7.0816	
7.08313	
7.08618	
7.08771	
7.08313	
7.07703	
7.08008	
7.07092	
7.07397	
7.07397	
7.07855	
7.0755	
7.07855	
7.07397	
7.08313	
7.07855	
7.08008	
7.0755	
7.08008	
7.08313	
7.08008	
7.08313	
7.07703	
7.07245	
7.07245	
7.0755	
7.07245	
7.07245	
7.07092	
7.07703	
7.07855	
7.07397	
7.0816	
7.0755	
7.07703	
7.0755	
7.0816	
7.07703	
7.08618	
7.07397	
7.07092	
7.07397	
7.07245	
7.07855	
7.07703	
7.0816	
7.07397	
7.07092	
7.07245	
7.0694	
7.07092	
7.07397	
7.07397	
7.07245	
7.07397	
7.07245	
7.07855	
7.06787	
7.07397	
7.06787	
7.07855	
7.07245	
7.0816	
7.07703	
7.07855	
7.07703	
7.07703	
7.07703	
7.07703	
7.07855	
7.08466	
7.08008	
7.07397	
7.0755	
7.08466	
7.08008	
7.07703	
7.07245	
7.07855	
7.08466	
7.08771	
7.08618	
7.08618	
7.0816	
7.09229	
7.08466	
7.09534	
7.09534	
7.09686	
7.08771	
7.08466	
7.08771	
7.08313	
7.0755	
7.0694	
7.08466	
7.08008	
7.0816	
7.07703	
7.07703	
7.07092	
7.0755	
7.07397	
7.07703	
7.07092	
7.07703	
7.07397	
7.07245	
7.07855	
7.0816	
7.08771	
7.0755	
7.08008	
7.07397	
7.08008	
7.08008	
7.07855	
7.07397	
7.07703	
7.0755	
7.08008	
7.07855	
7.08008	
7.0816	
7.08313	
7.08313	
7.08466	
7.08618	
7.08313	
7.08923	
7.08771	
7.08923	
7.09534	
7.07855	
7.08466	
7.08466	
7.08466	
7.08771	
7.08771	
7.08008	
7.07092	
7.06635	
7.06787	
7.07092	
7.06482	
7.0694	
7.06787	
7.0755	
7.07855	
7.07092	
7.06482	
7.07245	
7.08008	
7.07703	
7.0755	
7.0694	
7.07703	
7.07245	
7.0816	
7.07703	
7.08618	
7.08313	
7.08618	
7.0816	
7.08618	
7.08618	
7.08466	
7.08618	
7.0816	
7.08466	
7.08923	
7.0816	
7.0755	
7.07245	
7.0755	
7.07703	
7.07092	
7.07703	
7.07397	
7.07703	
7.07703	
7.0755	
7.0816	
7.0755	
7.08313	
7.07245	
7.07703	
7.07397	
7.07703	
7.07703	
7.07397	
7.07245	
7.06787	
7.08466	
7.08008	
7.09534	
7.09229	
7.09229	
7.09534	
7.09229	
7.08618	
7.08008	
7.08313	
7.08008	
7.08313	
7.08313	
7.08313	
7.07245	
7.08313	
7.07855	
7.08008	
7.08008	
7.07703	
7.07245	
7.0755	
7.07245	
7.0694	
7.07092	
7.0694	
7.0816	
7.07703	
7.07703	
7.0755	
7.07092	
7.0755	
7.0816	
7.07397	
7.07397	
7.07245	
7.0755	
7.08771	
7.09381	
7.09534	
7.08618	
7.08466	
7.07855	
7.0816	
7.07397	
7.0694	
7.06787	
7.0694	
7.07092	
7.07245	
7.07397	
7.07245	
7.07703	
7.07397	
7.07397	
7.0755	
7.0755	
7.07855	
7.08313	
7.07397	
7.07397	
7.07245	
7.0755	
7.07245	
7.07092	
7.07703	
7.07703	
7.07855	
7.07092	
7.07245	
7.07397	
7.08008	
7.08008	
7.07703	
7.07855	
7.07397	
7.08008	
7.0816	
7.08008	
7.07397	
7.0755	
7.07397	
7.0816	
7.08466	
7.08466	
7.07397	
7.0755	
7.07092	
7.06787	
7.0755	
7.07245	
7.07703	
7.07245	
7.08466	
7.07855	
7.0816	
7.07703	
7.06787	
7.06024	
7.05414	
7.05566	
7.06635	
7.07397	
7.06635	
7.06787	
7.07092	
7.07092	
7.0755	
7.07397	
7.0694	
7.0755	
7.07397	
7.07703	
7.0755	
7.06787	
7.06787	
7.06329	
7.07245	
7.0694	
7.07397	
7.07245	
7.08313	
7.07703	
7.08008	
7.07855	
7.0816	
7.08008	
7.08008	
7.07703	
7.07245	
7.07245	
7.06787	
7.07245	
7.07092	
7.07397	
7.07245	
7.0755	
7.07397	
7.07245	
7.07397	
7.07245	
7.07397	
7.07092	
7.0755	
7.07397	
7.08008	
7.07245	
7.07092	
7.07092	
7.06787	
7.07092	
7.06787	
7.06482	
7.06787	
7.07245	
7.07397	
7.0755	
7.07245	
7.06635	
7.07397	
7.0694	
7.07245	
7.07092	
7.0694	
7.05719	
7.06329	
7.06635	
7.07092	
7.06787	
7.07092	
7.06482	
7.07397	
7.06329	
7.06482	
7.07245	
7.06787	
7.07397	
7.07397	
7.06635	
7.06635	
7.06329	
7.06787	
7.07397	
7.0755	
7.0755	
7.0755	
7.07703	
7.07245	
7.06482	
7.07092	
7.05109	
7.0694	
7.07245	
7.07703	
7.07092	
7.07855	
7.0694	
7.0694	
7.06787	
7.0694	
7.07703	
7.08008	
7.06482	
7.07245	
7.08313	
7.08923	
7.08466	
7.07397	
7.0755	
7.06482	
7.06787	
7.06635	
7.06329	
7.06635	
7.06024	
7.06177	
7.06787	
7.0755	
7.0694	
7.06787	
7.06787	
7.07092	
7.06787	
7.06787	
7.07092	
7.0694	
7.07245	
7.0694	
7.06635	
7.06635	
7.07092	
7.06787	
7.07703	
7.0694	
7.06635	
7.06635	
7.06329	
7.06024	
7.06024	
7.0694	
7.06329	
7.06177	
7.05566	
7.07397	
7.07855	
7.07855	
7.0694	
7.07092	
7.06635	
7.06177	
7.06329	
7.05719	
7.06329	
7.07397	
7.07855	
7.07397	
7.06787	
7.0694	
7.0694	
7.07092	
7.07245	
7.07245	
7.06329	
7.06787	
7.06329	
7.07092	
7.06177	
7.05566	
7.04651	
7.05414	
7.05566	
7.06329	
7.0694	
7.06635	
7.07245	
7.06635	
7.0694	
7.06787	
7.06787	
7.06482	
7.06329	
7.06635	
7.06787	
7.06787	
7.06635	
7.07092	
7.08008	
7.0755	
7.07092	
7.07855	
7.07092	
7.07245	
7.0694	
7.07397	
7.07092	
7.06787	
7.06787	
7.0694	
7.0694	
7.06482	
7.05566	
7.05414	
7.05719	
7.05566	
7.05109	
7.05414	
7.05566	
7.05566	
7.0694	
7.06024	
7.0755	
7.07092	
7.0694	
7.07092	
7.07245	
7.07397	
7.0694	
7.07397	
7.07245	
7.06635	
7.06482	
7.06635	
7.06787	
7.06329	
7.06177	
7.05719	
7.06024	
7.06329	
7.06177	
7.05719	
7.06177	
7.06329	
7.06329	
7.06329	
7.05719	
7.05719	
7.06024	
7.06177	
7.06177	
7.07245	
7.06482	
7.0694	
7.06482	
7.0694	
7.06482	
7.06482	
7.06329	
7.06482	
7.06482	
7.06482	
7.06787	
7.06024	
7.05566	
7.05719	
7.06482	
7.06635	
7.0694	
7.07245	
7.06787	
7.0694	
7.07397	
7.0694	
7.06482	
7.06329	
7.05261	
7.05414	
7.06024	
7.05719	
7.04651	
7.05414	
7.06024	
7.06787	
7.0694	
7.06482	
7.06482	
7.05719	
7.06329	
7.07092	
7.0755	
7.06635	
7.06635	
7.06177	
7.04803	
7.04803	
7.05566	
7.05109	
7.06482	
7.06482	
7.06177	
7.07092	
7.06635	
7.0694	
7.06787	
7.07397	
7.06787	
7.06787	
7.06177	
7.06482	
7.06329	
7.06177	
7.05109	
7.04803	
7.0694	
7.06635	
7.06024	
7.05414	
7.05414	
7.05261	
7.05261	
7.06177	
7.06787	
7.06329	
7.06024	
7.06482	
7.06177	
7.06787	
7.06787	
7.07092	
7.06024	
7.06787	
7.06177	
7.06482	
7.06787	
7.06482	
7.06482	
7.06024	
7.06635	
7.06787	
7.05719	
7.05566	
7.05566	
7.06329	
7.06329	
7.06482	
7.06482	
7.06787	
7.06635	
7.06482	
7.05566	
7.06482	
7.06177	
7.06482	
7.05566	
7.06329	
7.05414	
7.06329	
7.05414	
7.05566	
7.06024	
7.06329	
7.0694	
7.05719	
7.05719	
7.06024	
7.06482	
7.06635	
7.06635	
7.06635	
7.06787	
7.06482	
7.07092	
7.07703	
7.07397	
7.07245	
7.06787	
7.07245	
7.07092	
7.08008	
7.07397	
7.07855	
7.08313	
7.08466	
7.0755	
7.07397	
7.07092	
7.06024	
7.06329	
7.05566	
7.06024	
7.06329	
7.06635	
7.06329	
7.06787	
7.06482	
7.06177	
7.05719	
7.06177	
7.06024	
7.06024	
7.06329	
7.05261	
7.05719	
7.06635	
7.06787	
7.06482	
7.06177	
7.05109	
7.04651	
7.05109	
7.03888	
7.04193	
7.0343	
7.03735	
7.0343	
7.05261	
7.05109	
7.05261	
7.04346	
7.04803	
7.04956	
7.05109	
7.04803	
7.05109	
7.04803	
7.04803	
7.05566	
7.05414	
7.06329	
7.05566	
7.06177	
7.05414	
7.06635	
7.06635	
7.06482	
7.05414	
7.05261	
7.05719	
7.06177	
7.05261	
7.05719	
7.06024	
7.05719	
7.05566	
7.05566	
7.05566	
7.05261	
7.05719	
7.05719	
7.05719	
7.06329	
7.05414	
7.05109	
7.05109	
7.06177	
7.06024	
7.06635	
7.06024	
7.05719	
7.05719	
7.05261	
7.07245	
7.0694	
7.0694	
7.07092	
7.0694	
7.06177	
7.05109	
7.05719	
7.05566	
7.05261	
7.05261	
7.04498	
7.04041	
7.05109	
7.04803	
7.05414	
7.04803	
7.05414	
7.04803	
7.05414	
7.04651	
7.05719	
7.05719	
7.05414	
7.05109	
7.04956	
7.05261	
7.05261	
7.05414	
7.05414	
7.05414	
7.05566	
7.06177	
7.05719	
7.05719	
7.05261	
7.05414	
7.06024	
7.05719	
7.06177	
7.05109	
7.05414	
7.04651	
7.06329	
7.06787	
7.07397	
7.06329	
7.06482	
7.06177	
7.06482	
7.07245	
7.06482	
7.06177	
7.05719	
7.06024	
7.05719	
7.06024	
7.06177	
7.0694	
7.07703	
7.07397	
7.06787	
7.06787	
7.06635	
7.05719	
7.06787	
7.06635	
7.07397	
7.06635	
7.06329	
7.06177	
7.05566	
7.05261	
7.05261	
7.05719	
7.04651	
7.04803	
7.04346	
7.04346	
7.04346	
7.04346	
7.04498	
7.04956	
7.04803	
7.05566	
7.06635	
7.06635	
7.05719	
7.05566	
7.05719	
7.05261	
7.05566	
7.04956	
7.05109	
7.06177	
7.06177	
7.05261	
7.05566	
7.06482	
7.06635	
7.06787	
7.06024	
7.06329	
7.05719	
7.06177	
7.06177	
7.06635	
7.05566	
7.06329	
7.05109	
7.05719	
7.05719	
7.05109	
7.05414	
7.04803	
7.05261	
7.05261	
7.05719	
7.05261	
7.06024	
7.05719	
7.06482	
7.06329	
7.06329	
7.06482	
7.06329	
7.06635	
7.06177	
7.06787	
7.06635	
7.06635	
7.06635	
7.06329	
7.05719	
7.05719	
7.05414	
7.05719	
7.06024	
7.06024	
7.06329	
7.05719	
7.05719	
7.04498	
7.04956	
7.04956	
7.05566	
7.05261	
7.04956	
7.05414	
7.04956	
7.05414	
7.06482	
7.06635	
7.06329	
7.06024	
7.06177	
7.06024	
7.06329	
7.06177	
7.06177	
7.06482	
7.06787	
7.06177	
7.06482	
7.05261	
7.06635	
7.06024	
7.05414	
7.05109	
7.04346	
7.04041	
7.06329	
7.06329	
7.06024	
7.06177	
7.06024	
7.06482	
7.05414	
7.05261	
7.05109	
7.05109	
7.04956	
7.04956	
7.04956	
7.05414	
7.05261	
7.06482	
7.06635	
7.06177	
7.06177	
7.06024	
7.06329	
7.05109	
7.06177	
7.06329	
7.06482	
7.06177	
7.06024	
7.06024	
7.05566	
7.06177	
7.05261	
7.05109	
7.04651	
7.04803	
7.05109	
7.05719	
7.04956	
7.05109	
7.04803	
7.05414	
7.05566	
7.05109	
7.05719	
7.05414	
7.06177	
7.06329	
7.06635	
7.0694	
7.06482	
7.05566	
7.05719	
7.05566	
7.05109	
7.05261	
7.04651	
7.05719	
7.06482	
7.06635	
7.06024	
7.05719	
7.05109	
7.05414	
7.04956	
7.04346	
7.04651	
7.06177	
7.06024	
7.04803	
7.05566	
7.05109	
7.05719	
7.05261	
7.06024	
7.05566	
7.06177	
7.05414	
7.05261	
7.04956	
7.05109	
7.05109	
7.05566	
7.05109	
7.04651	
7.04803	
7.05261	
7.05109	
7.05261	
7.05414	
7.05719	
7.07245	
7.07092	
7.06482	
7.06024	
7.04651	
7.05566	
7.06024	
7.06177	
7.05109	
7.04803	
7.04651	
7.05109	
7.04498	
7.04498	
7.04651	
7.04346	
7.04651	
7.04956	
7.05109	
7.04956	
7.04956	
7.04803	
7.05109	
7.05109	
7.05566	
7.05261	
7.06329	
7.06024	
7.05566	
7.06635	
7.05719	
7.05566	
7.04956	
7.06024	
7.05566	
7.05261	
7.05109	
7.05109	
7.05566	
7.05719	
7.05109	
7.04346	
7.04803	
7.04956	
7.05261	
7.05566	
7.05109	
7.05261	
7.04803	
7.05109	
7.04651	
7.04193	
7.03888	
7.04956	
7.04956	
7.05719	
7.05261	
7.06329	
7.05414	
7.05109	
7.04803	
7.05719	
7.05261	
7.05261	
7.04498	
7.04498	
7.05261	
7.05109	
7.06024	
7.06024	
7.05261	
7.05109	
7.05414	
7.05109	
7.05109	
7.04956	
7.05719	
7.05414	
7.05109	
7.05414	
7.04803	
7.05566	
7.04803	
7.05719	
7.05566	
7.05719	
7.05414	
7.05261	
7.05261	
7.05414	
7.05414	
7.04041	
7.03735	
7.03888	
7.04956	
7.05109	
7.05566	
7.04956	
7.04346	
7.04193	
7.04193	
7.04346	
7.04346	
7.05414	
7.06024	
7.07092	
7.06635	
7.06329	
7.04041	
7.03583	
7.02667	
7.02057	
7.01904	
7.02972	
7.04346	
7.03583	
7.05261	
7.06177	
7.05261	
7.05719	
7.05414	
7.04498	
7.04346	
7.04498	
7.04956	
7.05261	
7.05261	
7.04803	
7.05566	
7.06635	
7.06024	
7.05414	
7.04956	
7.05414	
7.04956	
7.05261	
7.05261	
7.05719	
7.05109	
7.04651	
7.04956	
7.05414	
7.05566	
7.04651	
7.04956	
7.04803	
7.04041	
7.03583	
7.04193	
7.04346	
7.04651	
7.04041	
7.03888	
7.04803	
7.05261	
7.07703	
7.09229	
7.10754	
7.1228	
7.13806	
7.12585	
7.11823	
7.09991	
7.07855	
7.05109	
7.03278	
7.0343	
7.03125	
7.02209	
7.02057	
7.02209	
7.02209	
7.01904	
7.03278	
7.04041	
7.03735	
7.03583	
7.03735	
7.0343	
7.04803	
7.05719	
7.05566	
7.04956	
7.05261	
7.04346	
7.04956	
7.04041	
7.0343	
7.03583	
7.03125	
7.0343	
7.03735	
7.04803	
7.08771	
7.12585	
7.15637	
7.17773	
7.18079	
7.18536	
7.18536	
7.16705	
7.1579	
7.13806	
7.12585	
7.09991	
7.08771	
7.06482	
7.04193	
7.00836	
6.98395	
6.97174	
6.95953	
6.95953	
6.96259	
6.97021	
6.97937	
6.99921	
7.02515	
7.04803	
7.06635	
7.08008	
7.09991	
7.11212	
7.10602	
7.09534	
7.07092	
7.04651	
7.00989	
6.99158	
6.99921	
6.9931	
6.97632	
6.97479	
6.9931	
6.99158	
7.00684	
7.01752	
7.02972	
7.02209	
7.02362	
7.04498	
7.07855	
7.1167	
7.14874	
7.16553	
7.17468	
7.17163	
7.1579	
7.14264	
7.12433	
7.10449	
7.0694	
7.04346	
7.03278	
7.02209	
7.02209	
7.00989	
7.01752	
7.01141	
7.00684	
7.00989	
7.02209	
7.04651	
7.0755	
7.11365	
7.13043	
7.13654	
7.13196	
7.11517	
7.08313	
7.06787	
7.05414	
7.04803	
7.02972	
7.02209	
7.01447	
6.99463	
6.96869	
6.93207	
6.92749	
6.91986	
6.91376	
6.91528	
6.92902	
6.96869	
7.00226	
7.01141	
7.02972	
7.04651	
7.0343	
7.05109	
7.04193	
7.02667	
7.02515	
7.02515	
7.03583	
7.03278	
7.01752	
7.01294	
6.99463	
6.99158	
6.98853	
6.9931	
7.00684	
6.99158	
6.98853	
6.99005	
6.99921	
6.98395	
7.00836	
7.02209	
7.03735	
7.04956	
7.05261	
7.05414	
7.05719	
7.06024	
7.05109	
7.02972	
6.99158	
6.98547	
6.99005	
6.9931	
7.00073	
7.01141	
7.02362	
7.03888	
7.03888	
7.04041	
7.04346	
7.02972	
7.0343	
7.02515	
7.02209	
7.01599	
6.99615	
6.95343	
6.93359	
6.94122	
6.9397	
6.95496	
6.96106	
6.97937	
6.96869	
6.97174	
6.96869	
6.96106	
6.95648	
6.94733	
6.95343	
6.96259	
6.96869	
6.96716	
6.96869	
6.96716	
6.97174	
6.97327	
6.97021	
6.9458	
6.94275	
6.9397	
6.95343	
6.97174	
6.98395	
7.03125	
7.0694	
7.09686	
7.11365	
7.1106	
7.09686	
7.0816	
7.06024	
7.02972	
6.99158	
6.96411	
6.94427	
6.92902	
6.91223	
6.90002	
6.90613	
6.90613	
6.94733	
6.9809	
7.01599	
7.02667	
7.04346	
7.06024	
7.06329	
7.0694	
7.06635	
7.07092	
7.04498	
7.01447	
6.96106	
6.92902	
6.8924	
6.86646	
6.85883	
6.86798	
6.88629	
6.91528	
6.93207	
6.94275	
6.95953	
6.95801	
6.987	
6.99921	
6.99921	
6.96411	
6.96106	
6.95038	
6.97174	
6.99005	
7.01294	
7.02209	
7.01904	
7.00378	
6.97479	
6.95496	
6.94427	
6.93054	
6.90613	
6.8924	
6.87866	
6.85883	
6.83746	
6.83899	
6.8512	
6.84814	
6.87714	
6.91071	
6.94885	
6.97784	
7.00073	
7.01599	
7.01294	
7.01141	
7.00836	
7.00836	
6.97174	
6.9458	
6.91071	
6.88171	
6.86646	
6.85883	
6.8634	
6.87256	
6.86951	
6.8634	
6.83746	
6.89697	
6.9519	
7.00836	
7.07092	
7.11823	
7.1579	
7.17316	
7.14874	
7.09686	
7.03278	
6.95496	
6.88629	
6.81763	
6.75354	
6.71997	
6.70471	
6.70776	
6.76117	
6.77338	
6.7749	
6.79779	
6.80695	
6.82068	
6.80695	
6.81458	
6.83289	
6.86188	
6.88934	
6.91376	
6.93359	
6.93359	
6.94733	
6.94427	
6.93207	
6.89697	
6.88477	
6.84814	
6.8222	
6.81305	
6.79626	
6.80847	
6.80542	
6.8161	
6.81305	
6.82831	
6.8573	
6.87866	
6.88477	
6.89087	
6.90002	
6.88019	
6.84814	
6.83594	
6.82983	
6.8222	
6.82373	
6.82373	
6.83136	
6.77948	
6.75201	
6.74438	
6.75201	
6.78406	
6.82068	
6.85272	
6.88782	
6.91376	
6.92902	
6.95343	
6.95648	
6.9458	
6.91986	
6.88782	
6.88171	
6.85883	
6.80237	
6.78558	
6.75812	
6.78253	
6.84814	
6.88782	
6.92444	
6.92902	
6.94122	
6.92291	
6.88934	
6.84814	
6.8161	
6.79474	
6.75201	
6.72302	
6.70624	
6.73828	
6.75659	
6.78253	
6.8161	
6.83289	
6.81305	
6.79779	
6.78253	
6.78253	
6.75354	
6.74133	
6.75507	
6.7688	
6.80847	
6.81915	
6.83899	
6.85577	
6.8634	
6.85577	
6.84967	
6.83594	
6.82068	
6.79169	
6.74744	
6.72302	
6.66656	
6.64368	
6.59943	
6.59332	
6.65436	
6.7276	
6.82373	
6.90308	
6.92444	
6.89697	
6.8573	
6.79474	
6.77338	
6.79474	
6.83746	
6.8161	
6.75507	
6.74744	
6.72302	
6.71997	
6.71539	
6.71234	
6.67572	
6.67267	
6.67572	
6.71539	
6.74744	
6.77338	
6.78253	
6.80389	
6.80695	
6.82526	
6.83441	
6.82678	
6.78711	
6.76727	
6.75812	
6.74286	
6.72302	
6.69403	
6.67419	
6.64978	
6.65436	
6.65894	
6.65436	
6.66656	
6.6452	
6.61926	
6.59027	
6.62231	
6.64368	
6.66351	
6.67267	
6.73065	
6.79169	
6.83746	
6.8573	
6.87561	
6.86493	
6.85425	
6.80542	
6.74591	
6.70166	
6.63147	
6.62384	
6.65436	
6.65131	
6.61774	
6.60095	
6.63757	
6.66962	
6.6803	
6.72455	
6.76727	
6.82526	
6.87866	
6.91376	
6.91681	
6.88629	
6.82068	
6.69403	
6.57349	
6.47888	
6.49414	
6.49414	
6.52008	
6.54755	
6.59637	
6.6452	
6.68945	
6.70624	
6.70013	
6.6925	
6.66962	
6.67572	
6.66656	
6.66656	
6.65894	
6.61926	
6.57959	
6.55212	
6.55365	
6.5506	
6.54602	
6.54297	
6.54907	
6.50635	
6.50482	
6.48193	
6.44989	
6.44989	
6.48499	
6.53381	
6.60553	
6.68335	
6.73065	
6.7215	
6.66504	
6.64673	
6.64673	
6.65436	
6.62231	
6.54755	
6.48346	
6.47888	
6.45294	
6.46057	
6.48346	
6.52161	
6.52771	
6.53687	
6.57654	
6.60706	
6.61774	
6.65283	
6.70929	
6.72302	
6.6803	
6.61316	
6.5155	
6.41479	
6.42242	
6.39648	
6.40564	
6.48651	
6.50024	
6.427	
6.37512	
6.34918	
6.3446	
6.37512	
6.4682	
6.52924	
6.62842	
6.6391	
6.61926	
6.60858	
6.65894	
6.67725	
6.63605	
6.604	
6.52008	
6.42853	
6.38885	
6.33698	
6.30798	
6.34155	
6.40411	
6.45905	
6.50787	
6.58569	
6.61163	
6.58722	
6.57196	
6.46667	
6.40564	
6.48041	
6.52924	
6.54602	
6.52771	
6.48804	
6.44684	
6.40259	
6.33087	
6.17065	
6.13251	
6.13708	
6.1676	
6.26373	
6.37665	
6.51703	
6.61316	
6.69861	
6.66046	
6.60095	
6.55212	
6.48041	
6.48804	
6.47888	
6.46362	
6.45142	
6.43311	
6.3797	
6.33087	
6.30493	
6.30951	
6.30646	
6.32172	
6.3324	
6.35376	
6.38733	
6.39038	
6.43158	
6.45294	
6.43158	
6.37054	
6.3797	
6.41937	
6.47278	
6.46515	
6.42853	
6.44379	
6.47888	
6.43463	
6.41937	
6.39496	
6.32935	
6.32935	
6.31256	
6.32782	
6.33698	
6.37665	
6.41785	
6.48956	
6.50024	
6.44836	
6.35223	
6.3736	
6.41174	
6.39954	
6.40411	
6.3797	
6.37512	
6.39343	
6.3797	
6.33698	
6.29425	
6.28662	
6.2973	
6.32019	
6.35071	
6.39038	
6.427	
6.46515	
6.46667	
6.46057	
6.40106	
6.37207	
6.36444	
6.41937	
6.4209	
6.38275	
6.38428	
6.35986	
6.35223	
6.30341	
6.2027	
6.17371	
6.21796	
6.21033	
6.26373	
6.38733	
6.46973	
6.52924	
6.53534	
6.4743	
6.32477	
6.34308	
6.39191	
6.43158	
6.43463	
6.39191	
6.3797	
6.38428	
6.38428	
6.35986	
6.34613	
6.32935	
6.32782	
6.28967	
6.19659	
6.05927	
6.05927	
6.08063	
6.13098	
6.2088	
6.29425	
6.40106	
6.49567	
6.55212	
6.62842	
6.53534	
6.46057	
6.44531	
6.44073	
6.41479	
6.40106	
6.39496	
6.38275	
6.38733	
6.38275	
6.37665	
6.38428	
6.41022	
6.44684	
6.45905	
6.46667	
6.46667	
6.46667	
6.44531	
6.41632	
6.36902	
6.28967	
6.26831	
6.27441	
6.30341	
6.3385	
6.34308	
6.35681	
6.3324	
6.34155	
6.35681	
6.35681	
6.36139	
6.36444	
6.38885	
6.41479	
6.41327	
6.45599	
6.45294	
6.44073	
6.44379	
6.42395	
6.30341	
6.17981	
6.18286	
6.25916	
6.32172	
6.37054	
6.41479	
6.39343	
6.37207	
6.36597	
6.36597	
6.36292	
6.36444	
6.36139	
6.35986	
6.35223	
6.34918	
6.35529	
6.36139	
6.36444	
6.36139	
6.35376	
6.34003	
6.34918	
6.34308	
6.32324	
6.28967	
6.24847	
6.24847	
6.27747	
6.29578	
6.33392	
6.36749	
6.35681	
6.40411	
6.42395	
6.427	
6.42548	
6.43005	
6.42395	
6.38733	
6.36902	
6.32782	
6.27899	
6.30341	
6.28052	
6.33698	
6.37512	
6.41632	
6.54297	
6.54907	
6.52618	
6.3858	
6.35834	
6.41479	
6.44379	
6.43311	
6.37512	
6.32935	
6.33392	
6.35071	
6.36139	
6.35986	
6.35529	
6.34613	
6.3446	
6.33392	
6.36139	
6.35376	
6.32629	
6.29578	
6.28815	
6.28204	
6.3385	
6.34308	
6.35376	
6.38123	
6.37207	
6.45752	
6.42395	
6.38275	
6.39496	
6.43616	
6.44531	
6.44836	
6.45294	
6.42853	
6.41174	
6.41327	
6.40411	
6.40411	
6.40259	
6.40259	
6.3858	
6.3797	
6.39801	
6.41022	
6.41022	
6.35834	
6.35376	
6.35376	
6.32782	
6.35986	
6.40106	
6.45142	
6.49719	
6.46057	
6.39191	
6.39343	
6.43005	
6.38733	
6.37207	
6.39038	
6.39191	
6.3858	
6.38123	
6.39038	
6.41785	
6.43158	
6.43311	
6.41327	
6.42548	
6.43616	
6.4743	
6.39648	
6.31866	
6.32477	
6.39343	
6.39343	
6.37207	
6.36292	
6.36902	
6.37665	
6.37054	
6.32477	
6.27594	
6.26373	
6.26068	
6.28357	
6.3324	
6.31714	
6.34003	
6.34155	
6.36902	
6.38275	
6.26526	
6.21796	
6.29578	
6.39648	
6.53992	
6.56128	
6.57196	
6.51855	
6.45447	
6.4209	
6.41632	
6.43311	
6.43005	
6.42853	
6.42548	
6.39191	
6.29883	
6.27441	
6.27747	
6.29425	
6.35529	
6.41327	
6.44684	
6.48956	
6.52008	
6.48193	
6.45905	
6.46362	
6.44989	
6.43005	
6.45752	
6.45905	
6.43463	
6.43616	
6.43005	
6.43311	
6.42395	
6.41785	
6.40259	
6.39496	
6.35986	
6.35071	
6.36902	
6.38733	
6.42242	
6.47583	
6.52008	
6.5033	
6.46515	
6.44073	
6.37512	
6.39343	
6.44226	
6.4209	
6.427	
6.40717	
6.41479	
6.41327	
6.41632	
6.38733	
6.34613	
6.30035	
6.25153	
6.23322	
6.27441	
6.33392	
6.43311	
6.58722	
6.56891	
6.51398	
6.60095	
6.60248	
6.54907	
6.51855	
6.51245	
6.49719	
6.49261	
6.47736	
6.48041	
6.48651	
6.50787	
6.53381	
6.54755	
6.57349	
6.55823	
6.5506	
6.51245	
6.51703	
6.44684	
6.3858	
6.35834	
6.35986	
6.35834	
6.32935	
6.30188	
6.31714	
6.32172	
6.36597	
6.37512	
6.42242	
6.46515	
6.5506	
6.57806	
6.55365	
6.54144	
6.52313	
6.56586	
6.56281	
6.62384	
6.62689	
6.59027	
6.57501	
6.54449	
6.48804	
6.43463	
6.39648	
6.46515	
6.5094	
6.55975	
6.55365	
6.52618	
6.5155	
6.54449	
6.55975	
6.57349	
6.55365	
6.57196	
6.55212	
6.51703	
6.5155	
6.5567	
6.52008	
6.46973	
6.48041	
6.49414	
6.44531	
6.36749	
6.25	
6.14777	
6.19812	
6.29578	
6.44989	
6.65436	
6.83746	
6.76727	
6.70776	
6.74591	
6.68335	
6.65741	
6.62079	
6.58112	
6.56738	
6.58264	
6.58875	
6.59332	
6.58875	
6.59332	
6.58569	
6.604	
6.60553	
6.56128	
6.48651	
6.41022	
6.2912	
6.21338	
6.2149	
6.40259	
6.67114	
6.71539	
6.6803	
6.66656	
6.78406	
6.62231	
6.53992	
6.54144	
6.55518	
6.5918	
6.59637	
6.61163	
6.63147	
6.65894	
6.6452	
6.57196	
6.55823	
6.56281	
6.50635	
6.49872	
6.49109	
6.51245	
6.55365	
6.54297	
6.51093	
6.52161	
6.54144	
6.51093	
6.48956	
6.41632	
6.43463	
6.45447	
6.47583	
6.52618	
6.57349	
6.61774	
6.63757	
6.59943	
6.62231	
6.62231	
6.633	
6.62689	
6.69708	
6.73218	
6.67267	
6.53992	
6.45905	
6.38275	
6.39496	
6.4621	
6.55975	
6.73218	
6.78406	
6.7276	
6.6925	
6.62689	
6.60553	
6.47736	
6.39191	
6.39191	
6.36292	
6.3385	
6.39954	
6.48346	
6.58112	
6.60858	
6.61163	
6.64063	
6.60553	
6.6452	
6.62079	
6.61774	
6.60248	
6.55518	
6.58264	
6.59027	
6.5567	
6.51245	
6.5094	
6.54602	
6.5506	
6.48193	
6.43768	
6.43768	
6.44989	
6.50024	
6.56738	
6.61926	
6.67114	
6.69708	
6.66046	
6.5918	
6.57501	
6.77338	
6.74438	
6.62842	
6.55365	
6.51093	
6.47583	
6.4743	
6.49872	
6.50635	
6.45905	
6.39496	
6.36139	
6.33087	
6.35529	
6.37054	
6.49414	
6.55823	
6.64215	
6.57806	
6.54144	
6.61926	
6.63757	
6.62689	
6.62384	
6.55212	
6.53076	
6.56586	
6.61011	
6.64825	
6.70319	
6.71692	
6.62994	
6.5567	
6.47736	
6.41479	
6.39801	
6.36139	
6.39954	
6.57196	
6.64215	
6.65741	
6.65741	
6.58112	
6.55823	
6.53839	
6.53381	
6.54907	
6.54144	
6.52466	
6.50787	
6.49261	
6.51093	
6.49261	
6.45752	
6.44989	
6.51398	
6.57043	
6.54602	
6.49414	
6.53839	
6.5094	
6.47888	
6.48193	
6.43463	
6.45599	
6.50024	
6.5094	
6.54144	
6.58264	
6.52313	
6.427	
6.36749	
6.38275	
6.46667	
6.5033	
6.57806	
6.62994	
6.71539	
6.6803	
6.44379	
6.26831	
6.19507	
6.21185	
6.33392	
6.48804	
6.63452	
6.75201	
6.83594	
6.78406	
6.69708	
6.63147	
6.53534	
6.55975	
6.53687	
6.53839	
6.52313	
6.47736	
6.44531	
6.44989	
6.46973	
6.4743	
6.52618	
6.5918	
6.633	
6.66962	
6.66199	
6.60248	
6.48041	
6.43463	
6.4621	
6.40106	
6.45752	
6.38733	
6.41479	
6.52924	
6.50787	
6.49567	
6.47888	
6.47888	
6.48193	
6.46515	
6.43616	
6.42242	
6.40411	
6.37665	
6.35071	
6.36749	
6.41937	
6.50482	
6.5155	
6.44226	
6.38885	
6.4682	
6.47736	
6.45142	
6.4682	
6.51855	
6.75812	
6.72913	
6.55365	
6.47583	
6.43005	
6.39954	
6.31714	
6.33087	
6.31256	
6.35529	
6.35681	
6.38275	
6.44684	
6.45905	
6.30341	
6.27899	
6.29425	
6.31409	
6.39191	
6.43768	
6.58722	
6.67877	
6.68488	
6.53381	
6.38123	
6.39038	
6.35376	
6.33087	
6.38885	
6.38275	
6.52771	
6.59943	
6.604	
6.60248	
6.52313	
6.39801	
6.39954	
6.41632	
6.43616	
6.4621	
6.51703	
6.52924	
6.54144	
6.47278	
6.38885	
6.51093	
6.48041	
6.46973	
6.52466	
6.5155	
6.48193	
6.49109	
6.44379	
6.37054	
6.40564	
6.3858	
6.30188	
6.23169	
6.19812	
6.23474	
6.2973	
6.35529	
6.43463	
6.45599	
6.42395	
6.40259	
6.39648	
6.3324	
6.25916	
6.26984	
6.24237	
6.26678	
6.46057	
6.60706	
6.604	
6.49567	
6.35834	
6.3385	
6.2439	
6.14166	
6.20728	
6.36444	
6.44073	
6.4209	
6.37665	
6.38885	
6.36444	
6.32782	
6.27747	
6.30341	
6.29425	
6.26831	
6.29272	
6.38275	
6.41632	
6.35223	
6.39191	
6.4743	
6.45142	
6.44379	
6.3736	
6.36292	
6.40259	
6.3736	
6.36444	
6.33087	
6.31409	
6.30188	
6.27747	
6.23932	
6.2439	
6.25763	
6.20422	
6.17523	
6.2088	
6.32172	
6.41022	
6.59943	
6.60248	
6.48804	
6.37665	
6.26526	
6.18286	
6.19354	
6.21033	
6.31256	
6.32629	
6.30341	
6.30798	
6.32477	
6.25763	
6.24237	
6.25916	
6.32477	
6.41327	
6.48956	
6.43311	
6.36292	
6.36444	
6.19659	
6.10962	
6.05316	
6.04553	
6.10657	
6.1142	
6.14166	
6.3446	
6.37054	
6.35834	
6.42242	
6.27594	
6.2912	
6.22406	
6.17218	
6.17981	
6.27289	
6.34918	
6.32324	
6.26984	
6.2088	
6.19812	
6.20117	
6.14777	
6.16302	
6.23627	
6.20422	
6.2027	
6.25153	
6.17676	
6.17676	
6.22864	
6.22864	
6.23169	
6.26526	
6.30188	
6.24542	
6.21796	
6.19812	
6.22101	
6.24542	
6.25763	
6.23474	
6.20422	
6.24084	
6.25763	
6.27289	
6.27136	
6.11725	
6.15997	
6.1264	
6.09283	
6.13708	
6.17828	
6.25153	
6.26678	
6.21338	
6.09131	
5.97839	
5.97687	
6.00891	
6.01501	
6.16608	
6.24084	
6.32629	
6.23932	
6.2149	
6.14777	
6.1264	
6.09741	
6.13403	
6.08368	
6.08215	
6.00433	
5.98145	
6.04553	
6.04248	
6.0791	
6.16455	
6.26678	
6.27289	
6.21796	
6.16302	
6.17371	
6.14319	
6.14929	
6.13708	
6.12488	
6.11572	
6.08063	
6.16608	
6.25916	
6.22711	
6.20575	
6.20728	
6.11115	
6.05164	
5.93109	
6.01501	
6.1676	
6.2149	
6.09589	
6.08978	
6.12183	
6.11572	
6.07452	
6.05011	
6.03485	
6.01501	
5.95856	
6.01654	
6.09436	
6.1142	
6.08521	
5.96619	
5.98755	
5.98755	
6.00128	
6.01654	
5.98602	
5.98602	
6.05316	
6.05164	
6.04706	
5.97382	
5.89142	
5.84869	
5.84106	
5.82733	
5.90515	
6.01654	
6.05011	
6.073	
6.09283	
6.09436	
6.1264	
6.07605	
6.0791	
6.0791	
5.9967	
5.88837	
5.88989	
5.94177	
5.90973	
5.90973	
5.87463	
5.84564	
5.896	
5.91736	
5.9906	
6.14014	
6.22101	
6.15387	
5.94177	
5.89752	
5.93262	
5.93719	
5.91736	
5.93567	
5.92499	
5.86853	
5.83801	
5.85022	
5.89447	
5.94788	
5.95703	
6.06232	
6.11572	
6.2027	
6.10504	
5.95245	
5.82733	
5.8075	
5.84259	
5.86395	
5.85632	
5.85327	
5.83801	
5.81665	
5.83496	
5.867	
5.85632	
5.83954	
5.83496	
5.82275	
5.83038	
5.83954	
5.83496	
5.79376	
5.75562	
5.73883	
5.70831	
5.72662	
5.78308	
5.84106	
5.92499	
6.01349	
6.00128	
5.95703	
5.91888	
5.85785	
5.81207	
5.84106	
5.82428	
5.80597	
5.79681	
5.8136	
5.81055	
5.7663	
5.71289	
5.68085	
5.70068	
5.73578	
5.73883	
5.78156	
5.84869	
5.93414	
5.94788	
6.00891	
5.97076	
5.81818	
5.70374	
5.70374	
5.68848	
5.76019	
5.81512	
5.87006	
5.8136	
5.77545	
5.76782	
5.76324	
5.76019	
5.76324	
5.7663	
5.74951	
5.74799	
5.74188	
5.7373	
5.74493	
5.72357	
5.71747	
5.73578	
5.74341	
5.74799	
5.77087	
5.74799	
5.75714	
5.73425	
5.74951	
5.74646	
5.74188	
5.7312	
5.7312	
5.72968	
5.70679	
5.70221	
5.76935	
5.74646	
5.71747	
5.72662	
5.72968	
5.73883	
5.76477	
5.76172	
5.74951	
5.74646	
5.72968	
5.67169	
5.64423	
5.63812	
5.65948	
5.70068	
5.74341	
5.7724	
5.84564	
5.83801	
5.79376	
5.75104	
5.72968	
5.70984	
5.71899	
5.74036	
5.7373	
5.72968	
5.73425	
5.74493	
5.74188	
5.74341	
5.74036	
5.74646	
5.74493	
5.73425	
5.72662	
5.69763	
5.66406	
5.57556	
5.52673	
5.49774	
5.50079	
5.49774	
5.56793	
5.63049	
5.74799	
5.94177	
5.97992	
5.91431	
5.91125	
5.89447	
5.88074	
5.88531	
5.84869	
5.83038	
5.79224	
5.79681	
5.79834	
5.79529	
5.80444	
5.79376	
5.80292	
5.78613	
5.79376	
5.78308	
5.78308	
5.78766	
5.79834	
5.79987	
5.79834	
5.73425	
5.70984	
5.69763	
5.69153	
5.73578	
5.7663	
5.82733	
5.896	
5.95856	
5.99365	
5.96924	
5.9082	
5.8609	
5.82428	
5.83801	
5.86548	
5.87311	
5.87769	
5.86548	
5.87158	
5.86548	
5.86395	
5.87311	
5.86395	
5.84564	
5.86395	
5.87311	
5.87311	
5.87463	
5.87311	
5.86853	
5.87769	
5.88074	
5.87769	
5.87158	
5.87006	
5.84564	
5.84869	
5.85632	
5.86395	
5.88989	
5.90515	
5.90057	
5.90973	
5.89752	
5.90057	
5.89447	
5.87616	
5.86243	
5.83344	
5.7724	
5.73578	
5.74036	
5.71747	
5.69305	
5.7312	
5.8075	
5.96466	
6.05774	
6.06689	
6.12488	
6.10657	
6.05011	
6.03333	
6.01044	
5.99976	
5.98145	
5.98145	
5.97839	
5.97229	
5.96313	
5.86395	
5.80292	
5.7663	
5.71594	
5.68542	
5.68695	
5.69153	
5.81055	
5.99823	
6.04858	
6.09283	
6.13251	
6.14014	
6.12488	
6.15082	
6.09589	
6.03485	
6.01501	
6.01349	
6.02112	
6.0318	
6.02875	
6.01959	
6.01044	
6.00739	
6.00433	
6.00281	
6.00433	
5.98907	
5.9845	
5.9845	
5.98755	
5.9845	
5.99518	
5.99365	
6.00433	
5.99976	
6.00739	
6.00281	
5.99518	
5.99976	
5.99213	
5.99365	
5.99518	
5.9967	
5.99365	
5.99365	
5.9906	
5.99213	
6.00128	
6.00433	
6.00128	
5.98907	
5.9845	
5.97229	
5.97382	
5.97992	
5.98755	
5.99976	
5.9967	
6.00281	
6.01349	
6.03638	
6.04248	
6.02875	
6.01196	
6.01959	
6.01959	
6.02722	
6.01654	
6.01807	
6.00433	
5.99976	
5.96771	
5.91888	
5.896	
5.87616	
5.88379	
5.88684	
5.93109	
5.96008	
5.99823	
6.00739	
5.9906	
5.9845	
5.96466	
5.93262	
5.92804	
5.94788	
6.01654	
6.06079	
6.06689	
6.11115	
6.13861	
6.11267	
6.08215	
6.073	
6.06995	
6.06537	
6.06995	
6.05774	
6.04401	
5.99976	
5.98755	
5.95703	
5.95703	
5.94788	
5.97382	
5.98755	
6.01044	
6.03485	
6.04401	
6.02417	
6.04095	
6.02722	
6.03027	
6.03027	
6.00739	
6.01196	
5.9967	
5.98602	
5.9906	
5.9967	
5.98602	
5.9845	
5.98145	
5.98145	
5.99823	
5.99365	
5.97992	
5.96161	
5.96008	
5.95703	
5.95245	
5.96161	
5.96161	
5.96008	
5.96313	
5.97076	
5.96924	
5.95245	
5.93719	
5.93719	
5.92957	
5.93872	
5.92957	
5.92346	
5.90973	
5.9021	
5.90057	
5.88989	
5.84564	
5.81818	
5.8136	
5.81665	
5.83344	
5.84717	
5.8609	
5.85785	
5.86548	
5.88074	
5.86853	
5.86243	
5.83801	
5.84412	
5.84412	
5.82275	
5.74646	
5.68848	
5.6427	
5.62592	
5.63202	
5.68848	
5.76324	
5.85327	
5.92804	
6.01044	
6.06079	
6.03333	
5.97687	
5.95245	
5.93872	
5.9082	
5.90668	
5.89142	
5.88074	
5.86395	
5.83954	
5.82581	
5.80902	
5.79529	
5.78461	
5.78613	
5.79224	
5.8136	
5.84106	
5.87158	
5.86243	
5.84259	
5.83191	
5.83191	
5.81055	
5.79834	
5.80597	
5.80597	
5.80444	
5.79681	
5.79987	
5.80444	
5.80597	
5.80597	
5.81207	
5.81207	
5.80139	
5.78766	
5.78461	
5.78003	
5.7724	
5.77393	
5.76324	
5.76477	
5.76019	
5.76935	
5.77087	
5.76172	
5.7663	
5.76935	
5.7663	
5.7663	
5.76172	
5.75562	
5.74951	
5.74493	
5.72968	
5.69153	
5.67017	
5.64423	
5.6366	
5.62897	
5.62897	
5.67169	
5.72968	
5.76935	
5.78766	
5.78461	
5.78766	
5.77698	
5.78003	
5.7785	
5.76172	
5.7663	
5.78308	
5.79071	
5.79987	
5.80444	
5.80444	
5.80597	
5.81055	
5.80292	
5.79224	
5.79071	
5.76935	
5.76782	
5.76477	
5.73273	
5.71136	
5.7251	
5.73578	
5.75256	
5.78613	
5.83038	
5.88684	
5.90973	
5.93262	
5.92957	
5.93109	
5.91888	
5.93719	
5.93109	
5.92651	
5.92499	
5.91736	
5.92957	
5.92957	
5.91888	
5.92194	
5.91583	
5.91125	
5.90515	
5.90668	
5.92346	
5.91736	
5.91583	
5.91736	
5.92194	
5.91888	
5.92804	
5.92041	
5.91583	
5.91736	
5.91583	
5.92499	
5.91736	
5.91888	
5.91125	
5.92499	
5.92804	
5.92804	
5.92957	
5.92346	
5.91736	
5.91125	
5.88379	
5.8609	
5.84106	
5.8197	
5.83496	
5.84412	
5.86548	
5.89294	
5.93109	
5.96924	
6.01959	
6.03943	
6.04858	
6.0318	
6.03333	
6.03027	
6.03638	
6.03027	
6.00739	
5.99365	
5.9845	
5.97687	
5.96466	
5.93872	
5.93109	
5.92651	
5.92957	
5.93872	
5.93719	
5.92651	
5.93872	
5.95856	
5.97839	
5.99213	
6.01654	
5.9967	
5.98907	
6.01349	
6.04553	
6.06689	
6.08215	
6.05469	
6.06232	
6.06995	
6.05927	
6.05774	
6.05316	
6.03638	
6.04095	
6.04858	
6.05316	
6.06079	
6.05621	
6.05621	
6.07147	
6.073	
6.073	
6.06079	
6.06232	
6.05621	
6.06079	
6.06537	
6.06995	
6.07147	
6.06689	
6.07147	
6.06232	
6.07452	
6.07147	
6.073	
6.07147	
6.06689	
6.07758	
6.07758	
6.073	
6.06995	
6.06537	
6.07605	
6.07605	
6.073	
6.073	
6.06995	
6.08521	
6.10046	
6.11572	
6.11115	
6.10657	
6.10352	
6.10199	
6.09131	
6.0791	
6.05164	
6.04095	
6.02264	
6.02264	
6.04401	
6.06689	
6.0791	
6.10962	
6.13556	
6.15082	
6.15387	
6.14929	
6.14777	
6.17065	
6.17523	
6.16302	
6.17218	
6.18439	
6.18134	
6.18134	
6.1676	
6.15387	
6.15082	
6.14777	
6.14166	
6.12335	
6.12488	
6.1203	
6.10962	
6.10504	
6.10504	
6.1142	
6.11725	
6.12335	
6.13556	
6.1554	
6.16455	
6.15997	
6.16608	
6.19659	
6.20728	
6.22559	
6.21643	
6.20575	
6.19812	
6.19812	
6.19659	
6.20117	
6.19812	
6.17523	
6.17371	
6.16302	
6.17065	
6.17218	
6.17676	
6.18744	
6.2027	
6.21948	
6.23016	
6.23016	
6.23627	
6.24084	
6.23474	
6.23169	
6.21948	
6.22559	
6.21948	
6.21948	
6.23016	
6.22406	
6.2088	
6.2027	
6.18896	
6.18439	
6.18439	
6.21185	
6.22101	
6.18439	
6.1676	
6.16608	
6.15997	
6.17065	
6.18896	
6.21338	
6.26373	
6.27136	
6.27899	
6.28052	
6.28662	
6.27899	
6.26068	
6.28662	
6.27441	
6.29272	
6.2561	
6.24542	
6.24847	
6.26068	
6.26373	
6.25916	
6.2561	
6.24695	
6.2561	
6.25153	
6.25153	
6.2439	
6.23932	
6.2439	
6.25763	
6.26373	
6.27136	
6.27289	
6.27594	
6.27289	
6.26373	
6.26221	
6.25153	
6.25	
6.2439	
6.25153	
6.25305	
6.25153	
6.2439	
6.2439	
6.26678	
6.26984	
6.26221	
6.25153	
6.26068	
6.27136	
6.27899	
6.27747	
6.27441	
6.27747	
6.28662	
6.28815	
6.29272	
6.28662	
6.28815	
6.2973	
6.29425	
6.29578	
6.2912	
6.2912	
6.29883	
6.28052	
6.28204	
6.27747	
6.27136	
6.26678	
6.27136	
6.25305	
6.23779	
6.2149	
6.20728	
6.20728	
6.23322	
6.26526	
6.31409	
6.33392	
6.34308	
6.34308	
6.33392	
6.32629	
6.29578	
6.27594	
6.29272	
6.31409	
6.30951	
6.34308	
6.33545	
6.32782	
6.32172	
6.31866	
6.31409	
6.31866	
6.31714	
6.31714	
6.30341	
6.2973	
6.30951	
6.31409	
6.31104	
6.30341	
6.30493	
6.30188	
6.29272	
6.2973	
6.29578	
6.30341	
6.30188	
6.31104	
6.31866	
6.32324	
6.31866	
6.30798	
6.30341	
6.30646	
6.31409	
6.30493	
6.2973	
6.2973	
6.31256	
6.31714	
6.32019	
6.31256	
6.30951	
6.31104	
6.31104	
6.31104	
6.31104	
6.30951	
6.30951	
6.31714	
6.31714	
6.32477	
6.31104	
6.30493	
6.30798	
6.31714	
6.32172	
6.32324	
6.31714	
6.31866	
6.32172	
6.32019	
6.32172	
6.32019	
6.32019	
6.30951	
6.31866	
6.31866	
6.31714	
6.30798	
6.31866	
6.32324	
6.31409	
6.30951	
6.30035	
6.30798	
6.32172	
6.3446	
6.36139	
6.38123	
6.37054	
6.36902	
6.36292	
6.34613	
6.32019	
6.30341	
6.31104	
6.31714	
6.31714	
6.31104	
6.32629	
6.34308	
6.3446	
6.33392	
6.32782	
6.33545	
6.32782	
6.31104	
6.32172	
6.32629	
6.32782	
6.32629	
