-2.05536	
-2.22931	
-2.40021	
-2.51312	
-2.54364	
-2.5177	
-2.47345	
-2.41394	
-2.37427	
-2.32849	
-2.28882	
-2.26135	
-2.22778	
-2.2171	
-2.211	
-2.20184	
-2.211	
-2.19574	
-2.18811	
-2.19421	
-2.19574	
-2.19879	
-2.14386	
-2.06146	
-2.04468	
-2.06604	
-2.08435	
-2.10571	
-2.12708	
-2.1698	
-2.211	
-2.26593	
-2.29645	
-2.28119	
-2.25525	
-2.23236	
-2.20032	
-2.17743	
-2.1286	
-2.10571	
-2.10266	
-2.1347	
-2.17285	
-2.22931	
-2.27814	
-2.31018	
-2.29187	
-2.23236	
-2.19421	
-2.0813	
-2.00958	
-1.94397	
-1.9455	
-2.01111	
-2.11029	
-2.18506	
-2.2644	
-2.31934	
-2.3407	
-2.33307	
-2.30865	
-2.26746	
-2.2583	
-2.27356	
-2.26135	
-2.16675	
-2.07977	
-2.08282	
-2.11487	
-2.11487	
-2.10876	
-2.1347	
-2.14233	
-2.15912	
-2.13013	
-2.05688	
-2.00653	
-2.04468	
-2.12402	
-2.19269	
-2.23694	
-2.27661	
-2.32391	
-2.36053	
-2.39563	
-2.3941	
-2.37122	
-2.34985	
-2.33612	
-2.31781	
-2.27203	
-2.24609	
-2.22931	
-2.21252	
-2.2171	
-2.211	
-2.18811	
-2.14691	
-2.12097	
-2.11487	
-2.11945	
-2.13318	
-2.1637	
-2.16522	
-2.17896	
-2.18201	
-2.18201	
-2.18658	
-2.19574	
-2.18506	
-2.19269	
-2.18811	
-2.20337	
-2.22778	
-2.25372	
-2.24609	
-2.22931	
-2.20032	
-2.18506	
-2.14996	
-2.15149	
-2.19421	
-2.20184	
-2.16217	
-2.11945	
-2.09045	
-2.09808	
-2.11487	
-2.14996	
-2.19116	
-2.22015	
-2.23694	
-2.22931	
-2.23846	
-2.24762	
-2.26288	
-2.2644	
-2.2583	
-2.24609	
-2.24609	
-2.27051	
-2.23999	
-2.20184	
-2.21863	
-2.20642	
-2.20642	
-2.2049	
-2.18506	
-2.17743	
-2.1347	
-2.07672	
-1.97754	
-1.9516	
-1.98517	
-2.05078	
-2.1225	
-2.19421	
-2.22473	
-2.25983	
-2.27509	
-2.31018	
-2.31018	
-2.29034	
-2.28271	
-2.26288	
-2.25525	
-2.23541	
-2.2171	
-2.21405	
-2.23694	
-2.22321	
-2.21405	
-2.23694	
-2.23389	
-2.22015	
-2.21252	
-2.20032	
-2.19879	
-2.19116	
-2.17285	
-2.14233	
-2.11029	
-2.10571	
-2.11487	
-2.10419	
-2.06909	
-2.0813	
-2.08893	
-2.1347	
-2.18811	
-2.20337	
-2.22778	
-2.24609	
-2.23389	
-2.21863	
-2.20642	
-2.21863	
-2.23389	
-2.25983	
-2.27814	
-2.29187	
-2.27814	
-2.26593	
-2.24152	
-2.21405	
-2.19421	
-2.17896	
-2.16675	
-2.1637	
-2.18658	
-2.18811	
-2.16522	
-2.11792	
-2.09656	
-2.09198	
-2.09503	
-2.10114	
-2.11792	
-2.14996	
-2.19116	
-2.22473	
-2.24457	
-2.2583	
-2.25525	
-2.2583	
-2.25525	
-2.24457	
-2.21252	
-2.22626	
-2.22626	
-2.211	
-2.18353	
-2.18811	
-2.18811	
-2.17285	
-2.17896	
-2.19574	
-2.18811	
-2.18353	
-2.18811	
-2.2049	
-2.22321	
-2.20184	
-2.16827	
-2.1637	
-2.17285	
-2.17743	
-2.14539	
-2.15149	
-2.18201	
-2.2049	
-2.23389	
-2.24609	
-2.23541	
-2.23694	
-2.22778	
-2.20947	
-2.19574	
-2.19116	
-2.18048	
-2.1759	
-2.17896	
-2.18048	
-2.17285	
-2.14081	
-2.10266	
-2.08893	
-2.0813	
-2.09808	
-2.12097	
-2.16522	
-2.19269	
-2.21863	
-2.21405	
-2.22626	
-2.25525	
-2.24915	
-2.24762	
-2.24304	
-2.23389	
-2.21405	
-2.18658	
-2.15912	
-2.14844	
-2.14233	
-2.14844	
-2.16217	
-2.1698	
-2.17743	
-2.18048	
-2.17743	
-2.16827	
-2.18506	
-2.19421	
-2.20032	
-2.22473	
-2.25067	
-2.25067	
-2.23389	
-2.21863	
-2.20947	
-2.2049	
-2.19421	
-2.19421	
-2.19727	
-2.20642	
-2.2049	
-2.18201	
-2.16827	
-2.17438	
-2.17743	
-2.18048	
-2.18048	
-2.18048	
-2.18353	
-2.18048	
-2.18353	
-2.19879	
-2.19574	
-2.19421	
-2.18811	
-2.18506	
-2.18353	
-2.18658	
-2.18658	
-2.18811	
-2.19574	
-2.18658	
-2.19574	
-2.211	
-2.22931	
-2.17896	
-2.17285	
-2.18353	
-2.19727	
-2.20032	
-2.18506	
-2.17133	
-2.18048	
-2.18048	
-2.1759	
-2.17438	
-2.18353	
-2.19421	
-2.19421	
-2.18353	
-2.1759	
-2.1759	
-2.17896	
-2.18506	
-2.19269	
-2.19727	
-2.19879	
-2.19574	
-2.19269	
-2.18658	
-2.19116	
-2.19269	
-2.19116	
-2.19116	
-2.19574	
-2.2049	
-2.19879	
-2.17438	
-2.16675	
-2.16827	
-2.1637	
-2.1637	
-2.16217	
-2.14539	
-2.1347	
-2.13623	
-2.15302	
-2.15149	
-2.18048	
-2.20947	
-2.2049	
-2.19727	
-2.18201	
-2.17285	
-2.16522	
-2.15912	
-2.15912	
-2.17133	
-2.19116	
-2.20184	
-2.20337	
-2.21252	
-2.21252	
-2.211	
-2.21405	
-2.21863	
-2.19879	
-2.17896	
-2.17133	
-2.16064	
-2.15302	
-2.15454	
-2.16827	
-2.18048	
-2.19421	
-2.20947	
-2.22626	
-2.24609	
-2.24457	
-2.18811	
-2.16064	
-2.17438	
-2.18658	
-2.18353	
-2.17285	
-2.17285	
-2.1637	
-2.15607	
-2.14996	
-2.1637	
-2.1759	
-2.17438	
-2.16675	
-2.16522	
-2.14233	
-2.13318	
-2.14081	
-2.14996	
-2.16675	
-2.1698	
-2.15454	
-2.16064	
-2.15607	
-2.16217	
-2.17285	
-2.1759	
-2.18658	
-2.18811	
-2.19879	
-2.20337	
-2.20947	
-2.20642	
-2.211	
-2.22473	
-2.22321	
-2.2171	
-2.2171	
-2.22778	
-2.21558	
-2.19116	
-2.19421	
-2.20184	
-2.20184	
-2.17896	
-2.17438	
-2.1759	
-2.18201	
-2.19574	
-2.20184	
-2.19879	
-2.2049	
-2.20642	
-2.20642	
-2.17438	
-2.13318	
-2.13318	
-2.14996	
-2.14691	
-2.13623	
-2.14386	
-2.1698	
-2.19269	
-2.211	
-2.19879	
-2.16827	
-2.17438	
-2.18658	
-2.19574	
-2.20184	
-2.20032	
-2.19421	
-2.18811	
-2.18658	
-2.18353	
-2.18048	
-2.16827	
-2.1698	
-2.16827	
-2.16217	
-2.15912	
-2.17285	
-2.15302	
-2.14844	
-2.14844	
-2.15302	
-2.15607	
-2.1698	
-2.18201	
-2.19727	
-2.211	
-2.22626	
-2.23694	
-2.23083	
-2.22321	
-2.20337	
-2.19421	
-2.16675	
-2.16217	
-2.16217	
-2.17133	
-2.18048	
-2.20337	
-2.21252	
-2.20032	
-2.18811	
-2.13776	
-2.14539	
-2.14081	
-2.14081	
-2.15912	
-2.18506	
-2.20184	
-2.20795	
-2.19879	
-2.19421	
-2.19574	
-2.19269	
-2.16522	
-2.16217	
-2.1637	
-2.16522	
-2.16675	
-2.15912	
-2.14386	
-2.13318	
-2.13013	
-2.13013	
-2.13623	
-2.14691	
-2.16675	
-2.18201	
-2.19727	
-2.19574	
-2.16217	
-2.14996	
-2.15912	
-2.16827	
-2.18048	
-2.1698	
-2.15302	
-2.14233	
-2.1347	
-2.14386	
-2.16064	
-2.15912	
-2.16217	
-2.19879	
-2.22626	
-2.23541	
-2.23999	
-2.23846	
-2.23541	
-2.21863	
-2.20642	
-2.19727	
-2.18811	
-2.18658	
-2.18048	
-2.18201	
-2.1637	
-2.16217	
-2.15302	
-2.15302	
-2.15454	
-2.1347	
-2.14386	
-2.15912	
-2.17285	
-2.17743	
-2.18353	
-2.20184	
-2.20642	
-2.20795	
-2.20795	
-2.19116	
-2.18048	
-2.17133	
-2.16217	
-2.16064	
-2.15912	
-2.16675	
-2.16675	
-2.15302	
-2.15607	
-2.16522	
-2.17285	
-2.1759	
-2.17896	
-2.17285	
-2.18353	
-2.18353	
-2.20032	
-2.2171	
-2.23083	
-2.21405	
-2.18048	
-2.17133	
-2.13776	
-2.13318	
-2.14691	
-2.14996	
-2.15454	
-2.15607	
-2.1637	
-2.1637	
-2.1637	
-2.16522	
-2.17133	
-2.17133	
-2.17133	
-2.17285	
-2.1759	
-2.17896	
-2.19421	
-2.19116	
-2.18201	
-2.17285	
-2.15912	
-2.14844	
-2.15607	
-2.16675	
-2.1759	
-2.18048	
-2.14844	
-2.14081	
-2.13318	
-2.13013	
-2.13013	
-2.1347	
-2.13928	
-2.14844	
-2.15454	
-2.16675	
-2.17896	
-2.19574	
-2.20032	
-2.2049	
-2.22015	
-2.20795	
-2.20642	
-2.22015	
-2.21405	
-2.18353	
-2.19269	
-2.19269	
-2.18506	
-2.18811	
-2.18048	
-2.17743	
-2.16675	
-2.14386	
-2.14996	
-2.15149	
-2.14844	
-2.15607	
-2.16217	
-2.17285	
-2.18506	
-2.18201	
-2.16522	
-2.16064	
-2.15607	
-2.17896	
-2.19574	
-2.19879	
-2.19727	
-2.20184	
-2.19574	
-2.19574	
-2.18353	
-2.1637	
-2.17438	
-2.18048	
-2.17896	
-2.17285	
-2.16217	
-2.14844	
-2.15149	
-2.15912	
-2.14233	
-2.13318	
-2.1347	
-2.15149	
-2.16064	
-2.17133	
-2.18353	
-2.1698	
-2.16827	
-2.18048	
-2.18811	
-2.18506	
-2.18048	
-2.18506	
-2.14996	
-2.12708	
-2.11487	
-2.11792	
-2.10419	
-2.08435	
-2.09045	
-2.09656	
-2.09503	
-2.11029	
-2.1225	
-2.14539	
-2.17438	
-2.20184	
-2.22626	
-2.24457	
-2.24762	
-2.2644	
-2.26135	
-2.25525	
-2.24915	
-2.211	
-2.2049	
-2.20795	
-2.20642	
-2.18506	
-2.17896	
-2.18201	
-2.17743	
-2.17133	
-2.16827	
-2.16522	
-2.16217	
-2.15607	
-2.15912	
-2.1637	
-2.1698	
-2.18353	
-2.20032	
-2.20795	
-2.19116	
-2.16064	
-2.14386	
-2.15454	
-2.16217	
-2.16217	
-2.15912	
-2.16522	
-2.17285	
-2.17896	
-2.18658	
-2.19116	
-2.19116	
-2.19116	
-2.19574	
-2.18201	
-2.17896	
-2.16522	
-2.16675	
-2.17133	
-2.16217	
-2.15454	
-2.15302	
-2.14691	
-2.14691	
-2.14386	
-2.14233	
-2.15454	
-2.15454	
-2.16675	
-2.17743	
-2.18353	
-2.18048	
-2.17896	
-2.18048	
-2.18353	
-2.18658	
-2.18506	
-2.18658	
-2.16522	
-2.16675	
-2.16522	
-2.1698	
-2.16827	
-2.17743	
-2.16675	
-2.16522	
-2.1698	
-2.18048	
-2.18201	
-2.17438	
-2.17743	
-2.15912	
-2.14233	
-2.15302	
-2.14539	
-2.15454	
-2.14233	
-2.14539	
-2.1637	
-2.17438	
-2.17285	
-2.1759	
-2.18353	
-2.18353	
-2.18353	
-2.19421	
-2.19116	
-2.19269	
-2.18201	
-2.18353	
-2.1759	
-2.1759	
-2.17285	
-2.1698	
-2.1698	
-2.16522	
-2.16675	
-2.1637	
-2.16217	
-2.17133	
-2.16675	
-2.16522	
-2.16827	
-2.17133	
-2.17896	
-2.19421	
-2.18658	
-2.18201	
-2.18201	
-2.17896	
-2.17133	
-2.17133	
-2.16675	
-2.1698	
-2.17133	
-2.17133	
-2.17133	
-2.16675	
-2.16522	
-2.16522	
-2.1698	
-2.17285	
-2.17285	
-2.16827	
-2.1698	
-2.1759	
-2.1759	
-2.17285	
-2.16064	
-2.16064	
-2.16675	
-2.17133	
-2.16827	
-2.16217	
-2.16217	
-2.16064	
-2.16827	
-2.1698	
-2.1759	
-2.18506	
-2.1637	
-2.17133	
-2.16522	
-2.15607	
-2.16217	
-2.16827	
-2.18506	
-2.19269	
-2.18811	
-2.1759	
-2.17438	
-2.17743	
-2.17285	
-2.16217	
-2.1637	
-2.16675	
-2.16522	
-2.16827	
-2.17133	
-2.17133	
-2.17133	
-2.1698	
-2.16675	
-2.16827	
-2.16522	
-2.16827	
-2.17133	
-2.17438	
-2.17133	
-2.17133	
-2.17133	
-2.1698	
-2.16675	
-2.16675	
-2.1698	
-2.16522	
-2.16522	
-2.16522	
-2.16217	
-2.16064	
-2.15454	
-2.16064	
-2.15912	
-2.1637	
-2.16675	
-2.17438	
-2.16827	
-2.17438	
-2.18506	
-2.18201	
-2.17896	
-2.17438	
-2.17133	
-2.17133	
-2.17285	
-2.17133	
-2.16827	
-2.15607	
-2.14996	
-2.14844	
-2.14996	
-2.14691	
-2.15302	
-2.1698	
-2.19116	
-2.19269	
-2.19574	
-2.19421	
-2.19421	
-2.16522	
-2.16217	
-2.17133	
-2.1759	
-2.1698	
-2.1698	
-2.16827	
-2.1698	
-2.17133	
-2.1698	
-2.16217	
-2.15607	
-2.15607	
-2.16064	
-2.15454	
-2.1637	
-2.16827	
-2.17438	
-2.18506	
-2.17896	
-2.1759	
-2.17438	
-2.17896	
-2.17896	
-2.17743	
-2.1759	
-2.17743	
-2.1759	
-2.1698	
-2.1698	
-2.17285	
-2.17285	
-2.16675	
-2.16217	
-2.15607	
-2.13928	
-2.14539	
-2.15149	
-2.15912	
-2.1637	
-2.16064	
-2.1698	
-2.16827	
-2.17285	
-2.17285	
-2.17896	
-2.17896	
-2.18201	
-2.19116	
-2.18048	
-2.18506	
-2.17743	
-2.16827	
-2.16827	
-2.17285	
-2.17438	
-2.17743	
-2.16675	
-2.14996	
-2.1637	
-2.16217	
-2.1637	
-2.16064	
-2.1637	
-2.16217	
-2.16064	
-2.14539	
-2.15912	
-2.16675	
-2.17743	
-2.18658	
-2.19269	
-2.18048	
-2.16217	
-2.15149	
-2.15302	
-2.17133	
-2.17438	
-2.16522	
-2.14691	
-2.14386	
-2.14081	
-2.14844	
-2.15302	
-2.16064	
-2.17285	
-2.16827	
-2.16217	
-2.16522	
-2.17438	
-2.18353	
-2.18658	
-2.19727	
-2.17896	
-2.16522	
-2.15149	
-2.15149	
-2.16064	
-2.16064	
-2.15912	
-2.14996	
-2.14691	
-2.14386	
-2.14691	
-2.14996	
-2.15149	
-2.16522	
-2.16522	
-2.15912	
-2.17743	
-2.1759	
-2.16675	
-2.16064	
-2.16217	
-2.16522	
-2.16675	
-2.17285	
-2.16827	
-2.16827	
-2.1759	
-2.17438	
-2.1637	
-2.1637	
-2.16827	
-2.17133	
-2.15912	
-2.15912	
-2.1637	
-2.1637	
-2.14539	
-2.1286	
-2.13776	
-2.14844	
-2.15607	
-2.1698	
-2.17438	
-2.18201	
-2.19421	
-2.17896	
-2.15302	
-2.14996	
-2.14844	
-2.15607	
-2.15454	
-2.15302	
-2.15302	
-2.15607	
-2.15912	
-2.16064	
-2.15302	
-2.15149	
-2.15149	
-2.15912	
-2.1637	
-2.17285	
-2.1759	
-2.17133	
-2.16064	
-2.17285	
-2.16675	
-2.15149	
-2.16522	
-2.16675	
-2.14386	
-2.14386	
-2.14996	
-2.15302	
-2.15607	
-2.16064	
-2.16064	
-2.16675	
-2.18201	
-2.18353	
-2.16522	
-2.15912	
-2.16522	
-2.16217	
-2.15607	
-2.15454	
-2.16827	
-2.16675	
-2.14691	
-2.14844	
-2.16217	
-2.1637	
-2.16522	
-2.16522	
-2.16827	
-2.18506	
-2.18658	
-2.16675	
-2.13928	
-2.10114	
-2.11334	
-2.13928	
-2.15302	
-2.16675	
-2.16522	
-2.1698	
-2.17896	
-2.18811	
-2.17896	
-2.18201	
-2.19116	
-2.18201	
-2.16827	
-2.1637	
-2.14691	
-2.1347	
-2.14386	
-2.14996	
-2.14844	
-2.14844	
-2.14386	
-2.14539	
-2.14691	
-2.14844	
-2.15149	
-2.15302	
-2.15912	
-2.1637	
-2.15912	
-2.1637	
-2.15912	
-2.14691	
-2.14996	
-2.15149	
-2.14691	
-2.14386	
-2.14996	
-2.16217	
-2.17743	
-2.18811	
-2.18658	
-2.15607	
-2.14539	
-2.15149	
-2.15607	
-2.16675	
-2.16522	
-2.16522	
-2.16675	
-2.16675	
-2.16522	
-2.16675	
-2.16827	
-2.1698	
-2.16522	
-2.16522	
-2.16675	
-2.16675	
-2.16827	
-2.16827	
-2.16675	
-2.16217	
-2.16064	
-2.15454	
-2.14539	
-2.14233	
-2.15302	
-2.15454	
-2.17133	
-2.17285	
-2.1637	
-2.1637	
-2.18048	
-2.18658	
-2.1637	
-2.16675	
-2.16064	
-2.15149	
-2.15302	
-2.15149	
-2.15302	
-2.15149	
-2.15149	
-2.15302	
-2.15454	
-2.15912	
-2.15912	
-2.16827	
-2.17285	
-2.14844	
-2.15607	
-2.1698	
-2.16675	
-2.16217	
-2.15149	
-2.15454	
-2.15149	
-2.14844	
-2.14386	
-2.14691	
-2.15607	
-2.16522	
-2.19269	
-2.2049	
-2.18811	
-2.17743	
-2.13776	
-2.13318	
-2.15149	
-2.16064	
-2.16522	
-2.14386	
-2.1347	
-2.13623	
-2.14233	
-2.13776	
-2.14539	
-2.14844	
-2.16064	
-2.1759	
-2.19116	
-2.18048	
-2.17896	
-2.18201	
-2.17285	
-2.1637	
-2.16827	
-2.16827	
-2.1637	
-2.16217	
-2.16064	
-2.15912	
-2.16064	
-2.16217	
-2.16522	
-2.16217	
-2.15607	
-2.16064	
-2.1637	
-2.16217	
-2.1637	
-2.16217	
-2.15912	
-2.16064	
-2.15912	
-2.15149	
-2.15912	
-2.15912	
-2.16064	
-2.16217	
-2.16064	
-2.16675	
-2.17285	
-2.16827	
-2.16217	
-2.1637	
-2.14844	
-2.15912	
-2.1637	
-2.17133	
-2.1698	
-2.16675	
-2.1637	
-2.14996	
-2.14539	
-2.15607	
-2.16675	
-2.17743	
-2.17896	
-2.15912	
-2.15607	
-2.14233	
-2.15149	
-2.15607	
-2.15912	
-2.16064	
-2.16064	
-2.15454	
-2.15149	
-2.14691	
-2.15454	
-2.15607	
-2.14996	
-2.15149	
-2.14996	
-2.15607	
-2.16675	
-2.16675	
-2.15912	
-2.14844	
-2.16217	
-2.16827	
-2.1637	
-2.15302	
-2.14996	
-2.15454	
-2.1637	
-2.15607	
-2.16217	
-2.1698	
-2.1698	
-2.1637	
-2.15912	
-2.1637	
-2.15454	
-2.14539	
-2.14386	
-2.14996	
-2.15454	
-2.15149	
-2.15149	
-2.16827	
-2.17743	
-2.18201	
-2.16522	
-2.15149	
-2.15302	
-2.15149	
-2.15607	
-2.1637	
-2.16217	
-2.14844	
-2.13318	
-2.13623	
-2.14844	
-2.16217	
-2.17133	
-2.19574	
-2.20032	
-2.14539	
-2.14233	
-2.16827	
-2.17438	
-2.14539	
-2.14539	
-2.13013	
-2.12097	
-2.13165	
-2.13776	
-2.14386	
-2.15302	
-2.17133	
-2.19879	
-2.22473	
-2.21863	
-2.1637	
-2.1347	
-2.15149	
-2.15912	
-2.16217	
-2.16064	
-2.16064	
-2.16064	
-2.16064	
-2.15607	
-2.15302	
-2.15454	
-2.15912	
-2.16064	
-2.16064	
-2.16064	
-2.16675	
-2.15607	
-2.16064	
-2.16217	
-2.15454	
-2.15302	
-2.14844	
-2.13623	
-2.13776	
-2.13623	
-2.13165	
-2.14539	
-2.1637	
-2.18201	
-2.18353	
-2.17896	
-2.17285	
-2.16827	
-2.16675	
-2.16675	
-2.1698	
-2.16827	
-2.1698	
-2.1698	
-2.16675	
-2.16675	
-2.16675	
-2.1637	
-2.15912	
-2.16217	
-2.16217	
-2.16064	
-2.15607	
-2.1698	
-2.17285	
-2.17133	
-2.14691	
-2.14233	
-2.14996	
-2.1347	
-2.13928	
-2.14386	
-2.16217	
-2.16675	
-2.17438	
-2.17896	
-2.1759	
-2.15912	
-2.15607	
-2.16522	
-2.16675	
-2.14844	
-2.14996	
-2.16522	
-2.16522	
-2.1759	
-2.16675	
-2.16675	
-2.16522	
-2.16675	
-2.1698	
-2.16675	
-2.15607	
-2.15912	
-2.15912	
-2.15302	
-2.15302	
-2.15454	
-2.15607	
-2.15607	
-2.16217	
-2.15912	
-2.15454	
-2.1637	
-2.16827	
-2.16522	
-2.15912	
-2.15607	
-2.15607	
-2.15454	
-2.16064	
-2.16064	
-2.15912	
-2.15607	
-2.15454	
-2.15912	
-2.15302	
-2.15912	
-2.1637	
-2.15607	
-2.15149	
-2.14233	
-2.14691	
-2.15607	
-2.16217	
-2.1698	
-2.1759	
-2.18048	
-2.17743	
-2.15454	
-2.14386	
-2.15302	
-2.16064	
-2.16217	
-2.15454	
-2.15607	
-2.15607	
-2.15302	
-2.15912	
-2.16064	
-2.15912	
-2.15912	
-2.16522	
-2.15607	
-2.15607	
-2.15302	
-2.15302	
-2.14691	
-2.15454	
-2.15149	
-2.15302	
-2.15607	
-2.15454	
-2.14691	
-2.14233	
-2.13928	
-2.14996	
-2.15302	
-2.15454	
-2.15912	
-2.17285	
-2.18811	
-2.20032	
-2.17133	
-2.14844	
-2.14233	
-2.13318	
-2.14539	
-2.15302	
-2.15149	
-2.14996	
-2.14996	
-2.15302	
-2.15302	
-2.15302	
-2.15149	
-2.15454	
-2.15454	
-2.15302	
-2.14386	
-2.14233	
-2.13928	
-2.13776	
-2.14081	
-2.14691	
-2.14539	
-2.14996	
-2.1637	
-2.1698	
-2.16064	
-2.1637	
-2.17285	
-2.19879	
-2.20184	
-2.15302	
-2.1347	
-2.15149	
-2.15912	
-2.15912	
-2.15607	
-2.16064	
-2.16064	
-2.15607	
-2.15149	
-2.14996	
-2.15454	
-2.15607	
-2.15912	
-2.15607	
-2.15912	
-2.16064	
-2.15912	
-2.14996	
-2.15302	
-2.14996	
-2.16064	
-2.16675	
-2.16522	
-2.16217	
-2.15607	
-2.1637	
-2.17285	
-2.15302	
-2.15302	
-2.15149	
-2.15302	
-2.15912	
-2.14996	
-2.15454	
-2.15454	
-2.16064	
-2.15607	
-2.15302	
-2.15912	
-2.16522	
-2.16522	
-2.15607	
-2.16675	
-2.16217	
-2.15912	
-2.14539	
-2.13928	
-2.13928	
-2.14691	
-2.15302	
-2.15607	
-2.16217	
-2.1698	
-2.17133	
-2.16217	
-2.15607	
-2.15454	
-2.15607	
-2.15912	
-2.15912	
-2.14233	
-2.13013	
-2.14081	
-2.15607	
-2.16217	
-2.15607	
-2.15454	
-2.14996	
-2.14844	
-2.14691	
-2.14691	
-2.14691	
-2.14539	
-2.15149	
-2.15607	
-2.15607	
-2.15302	
-2.15454	
-2.16064	
-2.1637	
-2.16064	
-2.15302	
-2.15302	
-2.15454	
-2.16064	
-2.15607	
-2.15302	
-2.14844	
-2.14844	
-2.14844	
-2.15454	
-2.15454	
-2.15302	
-2.15454	
-2.15454	
-2.15912	
-2.1698	
-2.16522	
-2.14233	
-2.14844	
-2.15454	
-2.14691	
-2.14996	
-2.14844	
-2.14996	
-2.14996	
-2.14844	
-2.15149	
-2.14844	
-2.14844	
-2.14844	
-2.14844	
-2.14996	
-2.15149	
-2.16217	
-2.15607	
-2.15912	
-2.14691	
-2.14539	
-2.14539	
-2.14539	
-2.14996	
-2.15912	
-2.14081	
-2.14081	
-2.14233	
-2.13928	
-2.15302	
-2.15302	
-2.16522	
-2.16522	
-2.15912	
-2.14386	
-2.14539	
-2.13776	
-2.13928	
-2.14691	
-2.15302	
-2.17285	
-2.18201	
-2.16522	
-2.17438	
-2.18811	
-2.1637	
-2.13165	
-2.13623	
-2.14539	
-2.14844	
-2.14844	
-2.14844	
-2.14996	
-2.14844	
-2.15607	
-2.15302	
-2.13928	
-2.14844	
-2.15454	
-2.15149	
-2.14233	
-2.14844	
-2.14233	
-2.13165	
-2.12708	
-2.1347	
-2.14539	
-2.14844	
-2.14539	
-2.14691	
-2.16064	
-2.16522	
-2.16675	
-2.15149	
-2.14844	
-2.15302	
-2.15607	
-2.14996	
-2.14844	
-2.16217	
-2.16675	
-2.15912	
-2.1347	
-2.14386	
-2.15912	
-2.15454	
-2.14996	
-2.15149	
-2.14844	
-2.14539	
-2.14996	
-2.14539	
-2.14233	
-2.14386	
-2.1347	
-2.13623	
-2.13776	
-2.13928	
-2.15302	
-2.16217	
-2.16522	
-2.15149	
-2.15454	
-2.15454	
-2.16675	
-2.16064	
-2.14996	
-2.14996	
-2.14539	
-2.15149	
-2.15454	
-2.15302	
-2.15607	
-2.16675	
-2.1698	
-2.15607	
-2.16522	
-2.16064	
-2.14539	
-2.13928	
-2.13776	
-2.13776	
-2.14081	
-2.14233	
-2.15302	
-2.15302	
-2.1637	
-2.17133	
-2.17133	
-2.15454	
-2.14691	
-2.14691	
-2.14691	
-2.14996	
-2.14844	
-2.14844	
-2.14539	
-2.14844	
-2.15607	
-2.1637	
-2.15912	
-2.15149	
-2.15912	
-2.15607	
-2.15149	
-2.14996	
-2.14386	
-2.14386	
-2.14691	
-2.14996	
-2.14691	
-2.14996	
-2.14844	
-2.14996	
-2.15302	
-2.16522	
-2.15149	
-2.13623	
-2.13318	
-2.13776	
-2.13776	
-2.13776	
-2.13928	
-2.14996	
-2.15302	
-2.16827	
-2.18201	
-2.16827	
-2.15302	
-2.14691	
-2.14691	
-2.14844	
-2.14996	
-2.14691	
-2.15149	
-2.1637	
-2.16522	
-2.17133	
-2.16827	
-2.16827	
-2.14996	
-2.13623	
-2.15454	
-2.14539	
-2.14844	
-2.16217	
-2.15149	
-2.14996	
-2.14691	
-2.14844	
-2.14844	
-2.15302	
-2.15149	
-2.15912	
-2.15912	
-2.15607	
-2.15607	
-2.15607	
-2.16064	
-2.1637	
-2.1698	
-2.16064	
-2.16522	
-2.16064	
-2.13928	
-2.13928	
-2.14386	
-2.14539	
-2.14691	
-2.14386	
-2.14233	
-2.14386	
-2.14233	
-2.14386	
-2.14844	
-2.16217	
-2.16675	
-2.17133	
-2.17285	
-2.1637	
-2.14691	
-2.14691	
-2.14539	
-2.14386	
-2.14539	
-2.14844	
-2.15454	
-2.14996	
-2.15149	
-2.14386	
-2.15149	
-2.1637	
-2.14844	
-2.14996	
-2.14996	
-2.16217	
-2.15607	
-2.15302	
-2.15302	
-2.14844	
-2.15454	
-2.15607	
-2.15912	
-2.16217	
-2.15607	
-2.15454	
-2.15454	
-2.15454	
-2.15149	
-2.15302	
-2.15302	
-2.15302	
-2.15149	
-2.15912	
-2.16217	
-2.15912	
-2.14081	
-2.14539	
-2.15302	
-2.15607	
-2.15454	
-2.15302	
-2.14844	
-2.15149	
-2.14539	
-2.14691	
-2.14233	
-2.13623	
-2.13318	
-2.13165	
-2.14386	
-2.16064	
-2.17896	
-2.19879	
-2.17285	
-2.15149	
-2.14539	
-2.1347	
-2.14539	
-2.14844	
-2.15302	
-2.15149	
-2.15149	
-2.14539	
-2.14996	
-2.15302	
-2.15149	
-2.14691	
-2.16064	
-2.16522	
-2.15912	
-2.16064	
-2.15454	
-2.15149	
-2.14386	
-2.13623	
-2.14081	
-2.13928	
-2.14081	
-2.14539	
-2.15302	
-2.15302	
-2.16217	
-2.1759	
-2.17133	
-2.16217	
-2.16217	
-2.16064	
-2.15912	
-2.1637	
-2.16064	
-2.15607	
-2.15302	
-2.15454	
-2.15454	
-2.15302	
-2.15454	
-2.15454	
-2.15454	
-2.15302	
-2.15607	
-2.15302	
-2.15149	
-2.14691	
-2.14691	
-2.14996	
-2.15454	
-2.16064	
-2.15607	
-2.1637	
-2.1759	
-2.15454	
-2.15454	
-2.15149	
-2.14844	
-2.15454	
-2.13776	
-2.13928	
-2.14386	
-2.14386	
-2.13776	
-2.14233	
-2.14844	
-2.15454	
-2.15454	
-2.14844	
-2.13776	
-2.14996	
-2.16217	
-2.16217	
-2.15302	
-2.14996	
-2.15302	
-2.15149	
-2.14844	
-2.15302	
-2.15912	
-2.15607	
-2.1637	
-2.15302	
-2.13928	
-2.15149	
-2.15149	
-2.14996	
-2.14996	
-2.14233	
-2.13928	
-2.13623	
-2.13928	
-2.13776	
-2.14233	
-2.14844	
-2.16522	
-2.1759	
-2.18201	
-2.17896	
-2.19421	
-2.15607	
-2.13623	
-2.14233	
-2.14691	
-2.14539	
-2.14996	
-2.15302	
-2.14539	
-2.14691	
-2.14691	
-2.14691	
-2.15149	
-2.15912	
-2.14996	
-2.14386	
-2.14539	
-2.14539	
-2.14386	
-2.14233	
-2.14081	
-2.13928	
-2.14233	
-2.14844	
-2.16064	
-2.15912	
-2.16217	
-2.16675	
-2.17438	
-2.16675	
-2.14996	
-2.13776	
-2.13318	
-2.13928	
-2.14844	
-2.15454	
-2.15302	
-2.15149	
-2.14844	
-2.15149	
-2.14539	
-2.14386	
-2.14233	
-2.14233	
-2.14233	
-2.13013	
-2.1225	
-2.13776	
-2.15454	
-2.17133	
-2.18506	
-2.15149	
-2.14691	
-2.14081	
-2.14539	
-2.14691	
-2.14844	
-2.15149	
-2.15149	
-2.15607	
-2.14691	
-2.14081	
-2.14539	
-2.14844	
-2.15607	
-2.1637	
-2.15302	
-2.16064	
-2.15912	
-2.14081	
-2.13318	
-2.1347	
-2.13928	
-2.14691	
-2.15149	
-2.15302	
-2.15302	
-2.15912	
-2.15149	
-2.14691	
-2.14996	
-2.14691	
-2.14844	
-2.14539	
-2.14233	
-2.14233	
-2.13776	
-2.15149	
-2.15302	
-2.14844	
-2.16064	
-2.17743	
-2.18811	
-2.15149	
-2.12402	
-2.14539	
-2.14996	
-2.14691	
-2.13776	
-2.13318	
-2.14233	
-2.14081	
-2.14386	
-2.14233	
-2.13318	
-2.13623	
-2.14539	
-2.15912	
-2.16217	
-2.15302	
-2.13165	
-2.13318	
-2.14386	
-2.15149	
-2.15912	
-2.16827	
-2.16522	
-2.15454	
-2.15149	
-2.14539	
-2.14233	
-2.14233	
-2.13928	
-2.14386	
-2.14691	
-2.14996	
-2.16064	
-2.15912	
-2.1698	
-2.16675	
-2.14539	
-2.14539	
-2.15302	
-2.15149	
-2.15149	
-2.14844	
-2.13928	
-2.14081	
-2.14233	
-2.15454	
-2.15454	
-2.15912	
-2.16217	
-2.16064	
-2.16675	
-2.16064	
-2.15912	
-2.15454	
-2.15912	
-2.15912	
-2.16064	
-2.15607	
-2.1637	
-2.15912	
-2.14081	
-2.13013	
-2.13776	
-2.14539	
-2.15149	
-2.15149	
-2.16064	
-2.15607	
-2.14386	
-2.12097	
-2.13318	
-2.14081	
-2.14081	
-2.14691	
-2.15149	
-2.15454	
-2.15607	
-2.15912	
-2.15912	
-2.15912	
-2.15302	
-2.14081	
-2.15149	
-2.15912	
-2.13776	
-2.10876	
-2.11182	
-2.1347	
-2.14844	
-2.15454	
-2.16675	
-2.16064	
-2.16064	
-2.15454	
-2.15454	
-2.16217	
-2.16064	
-2.15302	
-2.15454	
-2.14539	
-2.14386	
-2.13776	
-2.14233	
-2.14691	
-2.15149	
-2.15454	
-2.16217	
-2.16675	
-2.16064	
-2.15149	
-2.14844	
-2.14996	
-2.15302	
-2.15302	
-2.15149	
-2.14996	
-2.14691	
-2.14691	
-2.14539	
-2.14233	
-2.14691	
-2.14386	
-2.14386	
-2.14081	
-2.14386	
-2.15149	
-2.1698	
-2.18048	
-2.1698	
-2.16064	
-2.15912	
-2.16217	
-2.15454	
-2.14691	
-2.15302	
-2.14539	
-2.15149	
-2.15149	
-2.14844	
-2.14691	
-2.14996	
-2.14996	
-2.14539	
-2.14539	
-2.14996	
-2.15302	
-2.15149	
-2.16522	
-2.17133	
-2.14233	
-2.14996	
-2.1637	
-2.17133	
-2.15454	
-2.15454	
-2.14844	
-2.15454	
-2.15302	
-2.14996	
-2.14844	
-2.14844	
-2.14996	
-2.14691	
-2.14844	
-2.14539	
-2.14844	
-2.14844	
-2.15149	
-2.15607	
-2.15607	
-2.14996	
-2.15149	
-2.15912	
-2.15607	
-2.14081	
-2.13776	
-2.14386	
-2.15149	
-2.15302	
-2.15454	
-2.15912	
-2.14844	
-2.14996	
-2.14844	
-2.14844	
-2.14844	
-2.14539	
-2.14691	
-2.14844	
-2.15149	
-2.15149	
-2.14996	
-2.13318	
-2.14081	
-2.15149	
-2.16217	
-2.1698	
-2.1698	
-2.16522	
-2.16217	
-2.1637	
-2.15607	
-2.14844	
-2.15302	
-2.14844	
-2.14844	
-2.15454	
-2.15302	
-2.15302	
-2.15607	
-2.16217	
-2.1698	
-2.15607	
-2.14233	
-2.14386	
-2.14386	
-2.14996	
-2.15454	
-2.15302	
-2.15302	
-2.15607	
-2.16827	
-2.16522	
-2.16217	
-2.16522	
-2.15912	
-2.15302	
-2.15607	
-2.14996	
-2.15454	
-2.14996	
-2.15149	
-2.14996	
-2.14539	
-2.14386	
-2.15302	
-2.15607	
-2.15607	
-2.16522	
-2.1698	
-2.16675	
-2.15149	
-2.16217	
-2.15149	
-2.14539	
-2.13928	
-2.14539	
-2.14996	
-2.14844	
-2.14233	
-2.14386	
-2.14386	
-2.14539	
-2.14691	
-2.16064	
-2.15454	
-2.16064	
-2.15149	
-2.13318	
-2.13013	
-2.13928	
-2.14081	
-2.1347	
-2.1347	
-2.14691	
-2.1698	
-2.17133	
-2.17133	
-2.15912	
-2.14233	
-2.14386	
-2.15149	
-2.15454	
-2.15607	
-2.15454	
-2.15454	
-2.15912	
-2.14844	
-2.14844	
-2.15149	
-2.15149	
-2.13776	
-2.13928	
-2.14539	
-2.14844	
-2.15607	
-2.16064	
-2.16217	
-2.17133	
-2.17743	
-2.16827	
-2.15149	
-2.15149	
-2.14691	
-2.14233	
-2.15454	
-2.16064	
-2.15454	
-2.15454	
-2.15302	
-2.15454	
-2.15302	
-2.15149	
-2.15607	
-2.1637	
-2.15912	
-2.15607	
-2.15607	
-2.16064	
-2.14844	
-2.14386	
-2.13776	
-2.14081	
-2.14081	
-2.13928	
-2.14233	
-2.14844	
-2.16217	
-2.17285	
-2.18353	
-2.18811	
-2.1637	
-2.13165	
-2.13776	
-2.14081	
-2.14233	
-2.14691	
-2.14539	
-2.14844	
-2.15149	
-2.15454	
-2.16064	
-2.16064	
-2.14844	
-2.14844	
-2.14844	
-2.14844	
-2.15607	
-2.15607	
-2.15302	
-2.15149	
-2.15149	
-2.15302	
-2.13928	
-2.14081	
-2.14844	
-2.15302	
-2.1637	
-2.16522	
-2.17133	
-2.16827	
-2.16522	
-2.16064	
-2.14386	
-2.15607	
-2.16522	
-2.15912	
-2.15302	
-2.14844	
-2.15302	
-2.15454	
-2.15302	
-2.14996	
-2.15149	
-2.16217	
-2.15454	
-2.16064	
-2.17133	
-2.15149	
-2.1286	
-2.13623	
-2.14844	
-2.14996	
-2.14844	
-2.14539	
-2.14539	
-2.14996	
-2.14844	
-2.15149	
-2.15912	
-2.15912	
-2.15454	
-2.14996	
-2.14539	
-2.14539	
-2.14996	
-2.15454	
-2.16522	
-2.16522	
-2.16675	
-2.16675	
-2.16675	
-2.1698	
-2.1759	
-2.15607	
-2.1286	
-2.13928	
-2.14539	
-2.14844	
-2.14844	
-2.15302	
-2.15454	
-2.15912	
-2.15607	
-2.15607	
-2.15302	
-2.15454	
-2.15149	
-2.15607	
-2.1637	
-2.16675	
-2.15454	
-2.1347	
-2.14081	
-2.15454	
-2.15912	
-2.14844	
-2.15149	
-2.15149	
-2.14691	
-2.15302	
-2.15607	
-2.16064	
-2.16827	
-2.16522	
-2.15912	
-2.14691	
-2.14844	
-2.15302	
-2.15302	
-2.15302	
-2.15454	
-2.15454	
-2.15607	
-2.16064	
-2.14691	
-2.14539	
-2.15607	
-2.16217	
-2.15454	
-2.14386	
-2.15149	
-2.14233	
-2.13165	
-2.14691	
-2.15607	
-2.16522	
-2.1637	
-2.17133	
-2.1637	
-2.15912	
-2.16064	
-2.15454	
-2.15607	
-2.15302	
-2.14996	
-2.14844	
-2.14691	
-2.14386	
-2.14691	
-2.14844	
-2.15912	
-2.16064	
-2.1637	
-2.16522	
-2.15454	
-2.13776	
-2.14691	
-2.15149	
-2.15454	
-2.14996	
-2.15454	
-2.15149	
-2.16675	
-2.17438	
-2.16522	
-2.15454	
-2.14844	
-2.14691	
-2.14691	
-2.14996	
-2.15302	
-2.16064	
-2.1637	
-2.1637	
-2.15454	
-2.14996	
-2.14691	
-2.14996	
-2.15607	
-2.16217	
-2.16675	
-2.15607	
-2.16064	
-2.15302	
-2.15607	
-2.16064	
-2.1637	
-2.15912	
-2.14691	
-2.14844	
-2.14844	
-2.15607	
-2.16064	
-2.15912	
-2.16217	
-2.16675	
-2.17133	
-2.15454	
-2.14081	
-2.14386	
-2.14539	
-2.14539	
-2.14996	
-2.15454	
-2.15302	
-2.14844	
-2.14996	
-2.15607	
-2.1637	
-2.14691	
-2.14081	
-2.15607	
-2.16217	
-2.15912	
-2.16522	
-2.1637	
-2.17285	
-2.15912	
-2.15607	
-2.14996	
-2.1347	
-2.14081	
-2.14539	
-2.14996	
-2.14844	
-2.15149	
-2.15302	
-2.15454	
-2.15149	
-2.14996	
-2.14691	
-2.14844	
-2.15302	
-2.16064	
-2.16675	
-2.16064	
-2.15302	
-2.15607	
-2.15454	
-2.15607	
-2.14996	
-2.15454	
-2.16064	
-2.15607	
-2.15912	
-2.16522	
-2.14691	
-2.14233	
-2.14386	
-2.14233	
-2.14081	
-2.14081	
-2.14386	
-2.14996	
-2.15454	
-2.15149	
-2.14691	
-2.14233	
-2.14233	
-2.14996	
-2.14691	
-2.14386	
-2.15149	
-2.14996	
-2.14844	
-2.16064	
-2.1637	
-2.16827	
-2.1637	
-2.15912	
-2.15454	
-2.15607	
-2.14844	
-2.14691	
-2.15149	
-2.15302	
-2.15607	
-2.1637	
-2.16827	
-2.14386	
-2.13776	
-2.13623	
-2.14081	
-2.13928	
-2.14691	
-2.14996	
-2.1637	
-2.1759	
-2.18811	
-2.19727	
-2.16675	
-2.14233	
-2.13623	
-2.14386	
-2.14844	
-2.15302	
-2.15149	
-2.15302	
-2.14996	
-2.15454	
-2.15454	
-2.14996	
-2.15912	
-2.16064	
-2.15607	
-2.15607	
-2.16064	
-2.1637	
-2.1637	
-2.16522	
-2.14691	
-2.15302	
-2.14691	
-2.13013	
-2.14233	
-2.14996	
-2.15454	
-2.15302	
-2.15302	
-2.16217	
-2.15302	
-2.15149	
-2.14844	
-2.1347	
-2.13776	
-2.13928	
-2.14539	
-2.15149	
-2.15607	
-2.14996	
-2.14539	
-2.15149	
-2.15302	
-2.16064	
-2.16675	
-2.1698	
-2.16675	
-2.16522	
-2.16064	
-2.1637	
-2.16217	
-2.16522	
-2.16522	
-2.15454	
-2.14844	
-2.14996	
-2.14386	
-2.13928	
-2.14386	
-2.15912	
-2.16522	
-2.17133	
-2.18201	
-2.1759	
-2.16522	
-2.15149	
-2.14386	
-2.13318	
-2.13928	
-2.14539	
-2.14386	
-2.14844	
-2.15454	
-2.16217	
-2.16522	
-2.15302	
-2.15149	
-2.15302	
-2.15607	
-2.16064	
-2.15454	
-2.15302	
-2.16064	
-2.1637	
-2.15912	
-2.13928	
-2.13318	
-2.14996	
-2.16217	
-2.16217	
-2.16064	
-2.16217	
-2.16827	
-2.16522	
-2.15454	
-2.14539	
-2.13623	
-2.15149	
-2.15149	
-2.16064	
-2.15912	
-2.15149	
-2.15149	
-2.1637	
-2.17133	
-2.1637	
-2.14539	
-2.14386	
-2.14996	
-2.15149	
-2.15149	
-2.15149	
-2.15149	
-2.15607	
-2.15607	
-2.14996	
-2.15454	
-2.15912	
-2.16522	
-2.14539	
-2.14691	
-2.15454	
-2.15302	
-2.14844	
-2.14996	
-2.15454	
-2.15149	
-2.14844	
-2.14844	
-2.14996	
-2.15302	
-2.16217	
-2.1637	
-2.16827	
-2.1759	
-2.17896	
-2.19269	
-2.17743	
-2.14081	
-2.14539	
-2.14386	
-2.13776	
-2.14996	
-2.15302	
-2.15454	
-2.15607	
-2.16522	
-2.15912	
-2.14233	
-2.14081	
-2.15149	
-2.15302	
-2.15302	
-2.14996	
-2.14844	
-2.14539	
-2.14233	
-2.14539	
-2.14844	
-2.15912	
-2.16064	
-2.14539	
-2.16675	
-2.16675	
-2.16217	
-2.15912	
-2.15302	
-2.15302	
-2.15454	
-2.15302	
-2.15149	
-2.15302	
-2.15454	
-2.15454	
-2.15454	
-2.15607	
-2.1637	
-2.1637	
-2.15607	
-2.15607	
-2.14996	
-2.14844	
-2.14386	
-2.14081	
-2.14539	
-2.14691	
-2.15302	
-2.1637	
-2.16675	
-2.1759	
-2.17133	
-2.16827	
-2.15607	
-2.14691	
-2.14996	
-2.15607	
-2.16217	
-2.16675	
-2.16217	
-2.13928	
-2.14081	
-2.14539	
-2.15149	
-2.15607	
-2.14844	
-2.14233	
-2.14691	
-2.14539	
-2.14691	
-2.15912	
-2.16827	
-2.16217	
-2.15454	
-2.16064	
-2.17133	
-2.16064	
-2.14996	
-2.14081	
-2.14081	
-2.14233	
-2.14844	
-2.15149	
-2.14539	
-2.14844	
-2.15149	
-2.15149	
-2.14386	
-2.14691	
-2.14691	
-2.15149	
-2.15302	
-2.15302	
-2.15454	
-2.1637	
-2.1698	
-2.15454	
-2.14996	
-2.16064	
-2.15607	
-2.16064	
-2.1637	
-2.16522	
-2.16217	
-2.15149	
-2.15454	
-2.15302	
-2.15149	
-2.15302	
-2.15302	
-2.15302	
-2.15149	
-2.13623	
-2.1347	
-2.14386	
-2.16217	
-2.1698	
-2.15454	
-2.15912	
-2.15607	
-2.16675	
-2.15454	
-2.15149	
-2.16217	
-2.16064	
-2.15302	
-2.15302	
-2.15302	
-2.15302	
-2.14539	
-2.14539	
-2.14539	
-2.14539	
-2.14691	
-2.14996	
-2.14996	
-2.16217	
-2.17133	
-2.18201	
-2.17896	
-2.15454	
-2.15607	
-2.16217	
-2.15302	
-2.15454	
-2.14996	
-2.14691	
-2.16064	
-2.16217	
-2.16217	
-2.16064	
-2.15912	
-2.17133	
-2.1759	
-2.1698	
-2.14996	
-2.15607	
-2.1698	
-2.15912	
-2.12402	
-2.13013	
-2.14539	
-2.14844	
-2.14539	
-2.14996	
-2.14386	
-2.14233	
-2.14539	
-2.14691	
-2.14386	
-2.14844	
-2.16217	
-2.16064	
-2.15149	
-2.15149	
-2.14996	
-2.15302	
-2.14233	
-2.15454	
-2.16217	
-2.15302	
-2.16217	
-2.1698	
-2.16522	
-2.15149	
-2.14691	
-2.14233	
-2.14233	
-2.14233	
-2.14539	
-2.14386	
-2.14691	
-2.15607	
-2.1637	
-2.1698	
-2.17285	
-2.17438	
-2.17133	
-2.16827	
-2.16522	
-2.1637	
-2.1637	
-2.16064	
-2.15912	
-2.15454	
-2.15302	
-2.15912	
-2.15607	
-2.15454	
-2.15302	
-2.15302	
-2.15149	
-2.14844	
-2.14539	
-2.14691	
-2.14996	
-2.1637	
-2.16827	
-2.15912	
-2.16064	
-2.1637	
-2.15912	
-2.16217	
-2.1698	
-2.16827	
-2.15912	
-2.14691	
-2.14386	
-2.14691	
-2.14996	
-2.15454	
-2.15607	
-2.16064	
-2.17133	
-2.17133	
-2.15302	
-2.14386	
-2.13928	
-2.15607	
-2.16217	
-2.16064	
-2.14844	
-2.1698	
-2.16827	
-2.14844	
-2.15149	
-2.15607	
-2.15454	
-2.14844	
-2.14539	
-2.15302	
-2.14844	
-2.14386	
-2.14996	
-2.15607	
-2.16217	
-2.16675	
-2.15302	
-2.14081	
-2.14233	
-2.14386	
-2.14691	
-2.14233	
-2.13318	
-2.13928	
-2.13928	
-2.14386	
-2.14233	
-2.14386	
-2.14996	
-2.1637	
-2.16827	
-2.17133	
-2.16827	
-2.1637	
-2.16217	
-2.16522	
-2.15607	
-2.15912	
-2.15912	
-2.16064	
-2.15607	
-2.15607	
-2.15912	
-2.15302	
-2.15607	
-2.15454	
-2.15607	
-2.15912	
-2.15149	
-2.15454	
-2.14844	
-2.14691	
-2.14386	
-2.15149	
-2.14844	
-2.14844	
-2.15454	
-2.16827	
-2.18201	
-2.18506	
-2.15607	
-2.15149	
-2.16064	
-2.15912	
-2.16217	
-2.15607	
-2.16217	
-2.16217	
-2.15302	
-2.13928	
-2.14233	
-2.14691	
-2.14539	
-2.15149	
-2.15912	
-2.1698	
-2.17133	
-2.17133	
-2.16064	
-2.16675	
-2.16827	
-2.1698	
-2.16675	
-2.15607	
-2.1637	
-2.15607	
-2.15607	
-2.15607	
-2.16064	
-2.15454	
-2.15302	
-2.15302	
-2.15454	
-2.15149	
-2.15149	
-2.15149	
-2.15302	
-2.16522	
-2.16217	
-2.16064	
-2.15454	
-2.14996	
-2.14996	
-2.15912	
-2.16064	
-2.16522	
-2.15607	
-2.15149	
-2.16675	
-2.15607	
-2.14386	
-2.13623	
-2.14081	
-2.15302	
-2.1637	
-2.1637	
-2.16064	
-2.16522	
-2.15912	
-2.15912	
-2.15302	
-2.15149	
-2.14539	
-2.14844	
-2.15454	
-2.16064	
-2.16064	
-2.15912	
-2.16522	
-2.1698	
-2.16064	
-2.14844	
-2.16064	
-2.15607	
-2.15454	
-2.16064	
-2.15912	
-2.14691	
-2.14081	
-2.14691	
-2.15607	
-2.17133	
-2.18201	
-2.17743	
-2.13776	
-2.13165	
-2.14233	
-2.14844	
-2.14996	
-2.15912	
-2.15302	
-2.1637	
-2.1637	
-2.15912	
-2.15912	
-2.15912	
-2.16064	
-2.15912	
-2.15607	
-2.16064	
-2.15607	
-2.15607	
-2.16217	
-2.16827	
-2.16675	
-2.15912	
-2.15302	
-2.14691	
-2.14233	
-2.14386	
-2.14691	
-2.14691	
-2.15302	
-2.1637	
-2.16675	
-2.1698	
-2.1637	
-2.15607	
-2.14844	
-2.15302	
-2.15454	
-2.15607	
-2.16217	
-2.16217	
-2.16522	
-2.16064	
-2.1637	
-2.15302	
-2.15302	
-2.15607	
-2.15912	
-2.15607	
-2.14844	
-2.14386	
-2.14081	
-2.14996	
-2.15149	
-2.15607	
-2.16522	
-2.1637	
-2.1698	
-2.1759	
-2.17285	
-2.14233	
-2.1347	
-2.14233	
-2.14691	
-2.14691	
-2.14386	
-2.14386	
-2.15302	
-2.15454	
-2.18201	
-2.17896	
-2.1759	
-2.17285	
-2.1698	
-2.1759	
-2.1759	
-2.17438	
-2.1637	
-2.14996	
-2.14386	
-2.15454	
-2.16217	
-2.16827	
-2.1637	
-2.1637	
-2.14996	
-2.14691	
-2.15607	
-2.16064	
-2.15912	
-2.1637	
-2.16217	
-2.15454	
-2.15912	
-2.14996	
-2.14539	
-2.15149	
-2.15912	
-2.16217	
-2.1759	
-2.18353	
-2.18811	
-2.18658	
-2.1759	
-2.15912	
-2.15912	
-2.16064	
-2.15607	
-2.15607	
-2.15302	
-2.15454	
-2.15607	
-2.16064	
-2.16064	
-2.1637	
-2.1637	
-2.1698	
-2.16675	
-2.16827	
-2.1637	
-2.16217	
-2.15607	
-2.16064	
-2.15302	
-2.14996	
-2.14539	
-2.14233	
-2.14844	
-2.15302	
-2.14844	
-2.14996	
-2.14996	
-2.15607	
-2.1759	
-2.19574	
-2.1698	
-2.1698	
-2.1698	
-2.17285	
-2.17438	
-2.17133	
-2.15607	
-2.14844	
-2.14691	
-2.15149	
-2.14996	
-2.14996	
-2.16064	
-2.15302	
-2.15607	
-2.16064	
-2.17285	
-2.18353	
-2.18048	
-2.14996	
-2.13776	
-2.14539	
-2.15454	
-2.15912	
-2.15912	
-2.15912	
-2.15607	
-2.15302	
-2.14996	
-2.15149	
-2.15607	
-2.15607	
-2.15302	
-2.16522	
-2.16675	
-2.16827	
-2.14996	
-2.14996	
-2.15302	
-2.14996	
-2.15302	
-2.15149	
-2.16217	
-2.17133	
-2.1698	
-2.1698	
-2.1698	
-2.16827	
-2.16675	
-2.14691	
-2.14844	
-2.15607	
-2.14844	
-2.14081	
-2.14844	
-2.15149	
-2.16217	
-2.16064	
-2.15912	
-2.1637	
-2.16827	
-2.17896	
-2.18658	
-2.15912	
-2.14539	
-2.14844	
-2.15302	
-2.15302	
-2.15454	
-2.15607	
-2.14844	
-2.14691	
-2.14844	
-2.14691	
-2.14691	
-2.14691	
-2.15454	
-2.15912	
-2.1759	
-2.17438	
-2.1759	
-2.16064	
-2.15302	
-2.15454	
-2.15454	
-2.15454	
-2.15607	
-2.1637	
-2.16675	
-2.16675	
-2.17133	
-2.17133	
-2.16827	
-2.17285	
-2.17133	
-2.17285	
-2.17438	
-2.16522	
-2.12402	
-2.12708	
-2.13623	
-2.14081	
-2.14539	
-2.16217	
-2.16827	
-2.1698	
-2.1759	
-2.17438	
-2.16522	
-2.14844	
-2.13928	
-2.14844	
-2.15454	
-2.15912	
-2.15454	
-2.14996	
-2.15149	
-2.16064	
-2.16522	
-2.16675	
-2.17438	
-2.1698	
-2.16522	
-2.16522	
-2.15607	
-2.16064	
-2.16217	
-2.15912	
-2.16217	
-2.14996	
-2.15302	
-2.14691	
-2.14844	
-2.15302	
-2.15454	
-2.16675	
-2.16827	
-2.15302	
-2.14844	
-2.15302	
-2.15607	
-2.15454	
-2.14844	
-2.14539	
-2.14386	
-2.14691	
-2.14539	
-2.15149	
-2.15454	
-2.15912	
-2.16675	
-2.16217	
-2.15607	
-2.1637	
-2.17896	
-2.18201	
-2.16827	
-2.16827	
-2.1698	
-2.16827	
-2.16675	
-2.16675	
-2.1698	
-2.16827	
-2.1698	
-2.16064	
-2.15454	
-2.15302	
-2.14233	
-2.15454	
-2.15912	
-2.15454	
-2.15607	
-2.16217	
-2.1637	
-2.16675	
-2.17133	
-2.16522	
-2.16522	
-2.16827	
-2.17285	
-2.16064	
-2.14691	
-2.14996	
-2.16064	
-2.15607	
-2.15302	
-2.16064	
-2.16064	
-2.16217	
-2.16064	
-2.14996	
-2.14996	
-2.15912	
-2.15607	
-2.15454	
-2.15149	
-2.15607	
-2.15302	
-2.1637	
-2.16522	
-2.15912	
-2.1637	
-2.17743	
-2.17743	
-2.17133	
-2.1759	
-2.16522	
-2.15149	
-2.15912	
-2.1637	
-2.14996	
-2.15149	
-2.15912	
-2.14996	
-2.13623	
-2.14233	
-2.15454	
-2.17133	
-2.17285	
-2.14996	
-2.14691	
-2.15607	
-2.15912	
-2.15149	
-2.14691	
-2.14081	
-2.14081	
-2.15302	
-2.15149	
-2.14996	
-2.15454	
-2.16064	
-2.16827	
-2.16522	
-2.16522	
-2.16827	
-2.17133	
-2.17896	
-2.18201	
-2.1759	
-2.16064	
-2.15454	
-2.15912	
-2.15302	
-2.15454	
-2.15607	
-2.16064	
-2.16522	
-2.1698	
-2.17133	
-2.1698	
-2.14996	
-2.15149	
-2.16064	
-2.15607	
-2.16217	
-2.15912	
-2.15912	
-2.15302	
-2.15149	
-2.15149	
-2.15912	
-2.15607	
-2.15912	
-2.14996	
-2.15149	
-2.15912	
-2.1698	
-2.16522	
-2.1698	
-2.16675	
-2.16522	
-2.16522	
-2.15607	
-2.15607	
-2.15607	
-2.15912	
-2.15912	
-2.1637	
-2.15607	
-2.16064	
-2.15607	
-2.15607	
-2.15302	
-2.15149	
-2.15302	
-2.15454	
-2.16064	
-2.15912	
-2.1637	
-2.16064	
-2.16064	
-2.15149	
-2.14539	
-2.14691	
-2.14996	
-2.15149	
-2.15149	
-2.15149	
-2.15149	
-2.15912	
-2.16675	
-2.1759	
-2.18506	
-2.16064	
-2.16217	
-2.16217	
-2.15454	
-2.14233	
-2.14386	
-2.14844	
-2.15912	
-2.15302	
-2.15607	
-2.15302	
-2.14844	
-2.14386	
-2.14386	
-2.14081	
-2.14081	
-2.14081	
-2.13928	
-2.14081	
-2.13623	
-2.14233	
-2.16064	
-2.18353	
-2.19727	
-2.18201	
-2.15149	
-2.13623	
-2.15912	
-2.16675	
-2.14844	
-2.14996	
-2.1637	
-2.15454	
-2.14233	
-2.14996	
-2.15149	
-2.14844	
-2.15302	
-2.15607	
-2.15607	
-2.15607	
-2.16064	
-2.16064	
-2.15302	
-2.15302	
-2.14996	
-2.14539	
-2.14539	
-2.14844	
-2.14996	
-2.14996	
-2.15149	
-2.14844	
-2.14539	
-2.14996	
-2.15302	
-2.1637	
-2.16675	
-2.15912	
-2.16064	
-2.15149	
-2.14996	
-2.14691	
-2.15149	
-2.14844	
-2.14386	
-2.14996	
-2.15149	
-2.14233	
-2.13928	
-2.14081	
-2.14233	
-2.14386	
-2.15149	
-2.17438	
-2.16675	
-2.15607	
-2.16064	
-2.15454	
-2.14996	
-2.15454	
-2.15607	
-2.15607	
-2.15149	
-2.15149	
-2.15912	
-2.16064	
-2.1637	
-2.16827	
-2.1637	
-2.1637	
-2.16522	
-2.16675	
-2.15607	
-2.16217	
-2.16522	
-2.15454	
-2.13623	
-2.13776	
-2.13776	
-2.13928	
-2.14081	
-2.14081	
-2.14691	
-2.14844	
-2.16217	
-2.16217	
-2.17438	
-2.17438	
-2.16522	
-2.14844	
-2.14844	
-2.15149	
-2.15149	
-2.15607	
-2.15454	
-2.16064	
-2.15912	
-2.15149	
-2.13318	
-2.13928	
-2.14081	
-2.14081	
-2.13623	
-2.13928	
-2.13623	
-2.14233	
-2.14691	
-2.13928	
-2.14081	
-2.15302	
-2.16827	
-2.1759	
-2.17285	
-2.17133	
-2.1759	
-2.16675	
-2.14691	
-2.14996	
-2.15454	
-2.15912	
-2.16675	
-2.1637	
-2.16064	
-2.15607	
-2.14996	
-2.14844	
-2.14691	
-2.15302	
-2.15607	
-2.15607	
-2.1637	
-2.1637	
-2.1698	
-2.15607	
-2.15149	
-2.15607	
-2.15454	
-2.14996	
-2.15302	
-2.15149	
-2.15149	
-2.14691	
-2.14691	
-2.14844	
-2.14844	
-2.14996	
-2.15454	
-2.15454	
-2.15912	
-2.16217	
-2.16675	
-2.16827	
-2.16675	
-2.16064	
-2.16064	
-2.16064	
-2.15912	
-2.15912	
-2.15607	
-2.14996	
-2.15454	
-2.15607	
-2.15607	
-2.15302	
-2.15302	
-2.15149	
-2.14996	
-2.1347	
-2.13623	
-2.14081	
-2.14691	
-2.15149	
-2.14539	
-2.14233	
-2.14386	
-2.14844	
-2.16675	
-2.19269	
-2.19727	
-2.1759	
-2.16522	
-2.14996	
-2.13928	
-2.13623	
-2.14081	
-2.14081	
-2.14539	
-2.14844	
-2.15454	
-2.15607	
-2.16217	
-2.1637	
-2.17743	
-2.1698	
-2.15912	
-2.15912	
-2.16217	
-2.16217	
-2.15912	
-2.15912	
-2.15912	
-2.15607	
-2.15912	
-2.16064	
-2.15912	
-2.15149	
-2.14996	
-2.15149	
-2.15454	
-2.15302	
-2.15912	
-2.16217	
-2.16217	
-2.1637	
-2.16675	
-2.1637	
-2.1637	
-2.16217	
-2.15607	
-2.16064	
-2.15302	
-2.14844	
-2.14691	
-2.14691	
-2.14386	
-2.14691	
-2.15149	
-2.16217	
-2.17285	
-2.1698	
-2.14844	
-2.14844	
-2.16217	
-2.16827	
-2.16064	
-2.14844	
-2.15912	
-2.15607	
-2.16064	
-2.15302	
-2.15912	
-2.15302	
-2.16064	
-2.15454	
-2.15912	
-2.14386	
-2.1347	
-2.14081	
-2.14233	
-2.14539	
-2.14844	
-2.15912	
-2.16675	
-2.15912	
-2.1698	
-2.16522	
-2.15149	
-2.15912	
-2.16675	
-2.15302	
-2.14539	
-2.14844	
-2.15149	
-2.14996	
-2.14233	
-2.14539	
-2.15607	
-2.16064	
-2.15912	
-2.15149	
-2.14691	
-2.14539	
-2.14691	
-2.15149	
-2.15302	
-2.15302	
-2.14691	
-2.15912	
-2.16522	
-2.17285	
-2.18201	
-2.1698	
-2.16217	
-2.16522	
-2.1637	
-2.1637	
-2.1637	
-2.16675	
-2.16522	
-2.16064	
-2.16522	
-2.16217	
-2.16064	
-2.16522	
-2.15149	
-2.14996	
-2.15302	
-2.15454	
-2.15149	
-2.14996	
-2.14996	
-2.14844	
-2.14996	
-2.15454	
-2.15302	
-2.14081	
-2.14539	
-2.14539	
-2.15149	
-2.16064	
-2.17438	
-2.18353	
-2.18353	
-2.17743	
-2.1698	
-2.16064	
-2.15302	
-2.15149	
-2.15607	
-2.15607	
-2.15454	
-2.16064	
-2.1637	
-2.16675	
-2.16827	
-2.17133	
-2.16675	
-2.1698	
-2.17743	
-2.17896	
-2.15912	
-2.15912	
-2.16064	
-2.1637	
-2.15149	
-2.14081	
-2.14386	
-2.14691	
-2.15149	
-2.14996	
-2.15302	
-2.16827	
-2.17133	
-2.16827	
-2.14996	
-2.15302	
-2.15912	
-2.1637	
-2.16064	
-2.15607	
-2.15302	
-2.14844	
-2.15149	
-2.15149	
-2.15454	
-2.15607	
-2.1637	
-2.16827	
-2.17133	
-2.1637	
-2.15912	
-2.16064	
-2.16827	
-2.17438	
-2.16675	
-2.15607	
-2.15912	
-2.15149	
-2.15912	
-2.16064	
-2.1637	
-2.16064	
-2.16522	
-2.15454	
-2.15302	
-2.16522	
-2.17896	
-2.1759	
-2.17133	
-2.15912	
-2.16064	
-2.15302	
-2.15302	
-2.16064	
-2.16522	
-2.16675	
-2.17896	
-2.18048	
-2.17438	
-2.15607	
-2.15454	
-2.1637	
-2.16675	
-2.16827	
-2.17438	
-2.17285	
-2.16675	
-2.15454	
-2.14539	
-2.13776	
-2.15302	
-2.14996	
-2.14844	
-2.15607	
-2.16827	
-2.1698	
-2.1759	
-2.16827	
-2.16827	
-2.15149	
-2.15912	
-2.16522	
-2.17285	
-2.1759	
-2.17438	
-2.14233	
-2.14081	
-2.15149	
-2.15149	
-2.16217	
-2.16064	
-2.16217	
-2.1637	
-2.15607	
-2.16064	
-2.16217	
-2.16217	
-2.1637	
-2.16827	
-2.16827	
-2.17133	
-2.1698	
-2.15607	
-2.14539	
-2.14386	
-2.14996	
-2.16064	
-2.16675	
-2.16217	
-2.15454	
-2.15912	
-2.1637	
-2.16675	
-2.16675	
-2.16522	
-2.16217	
-2.16064	
-2.16217	
-2.15912	
-2.16217	
-2.16522	
-2.16217	
-2.1698	
-2.1698	
-2.1698	
-2.16675	
-2.16675	
-2.16675	
-2.17285	
-2.16675	
-2.16675	
-2.16522	
-2.1698	
-2.1698	
-2.16522	
-2.15607	
-2.15912	
-2.16522	
-2.16827	
-2.15607	
-2.14996	
-2.15607	
-2.16064	
-2.16064	
-2.16064	
-2.1637	
-2.16217	
-2.1637	
-2.16827	
-2.1698	
-2.16827	
-2.15149	
-2.14844	
-2.15149	
-2.15302	
-2.14691	
-2.14386	
-2.14844	
-2.14386	
-2.14081	
-2.14996	
-2.15302	
-2.16064	
-2.16217	
-2.1637	
-2.19116	
-2.19574	
-2.17285	
-2.16064	
-2.16064	
-2.1698	
-2.16827	
-2.16522	
-2.15912	
-2.15912	
-2.15912	
-2.15912	
-2.15607	
-2.15607	
-2.15912	
-2.16217	
-2.16827	
-2.1759	
-2.18048	
-2.17438	
-2.1759	
-2.1698	
-2.16675	
-2.1637	
-2.16217	
-2.17133	
-2.17285	
-2.1698	
-2.17133	
-2.18506	
-2.19421	
-2.18048	
-2.17285	
-2.1698	
-2.16675	
-2.14996	
-2.14844	
-2.16064	
-2.15454	
-2.15912	
-2.15912	
-2.15607	
-2.16217	
-2.16217	
-2.15607	
-2.15912	
-2.15454	
-2.15607	
-2.16064	
-2.16675	
-2.17133	
-2.16522	
-2.15302	
-2.15912	
-2.1637	
-2.16522	
-2.16522	
-2.1698	
-2.17285	
-2.1637	
-2.16064	
-2.15912	
-2.15454	
-2.15454	
-2.15607	
-2.16064	
-2.15912	
-2.1637	
-2.16522	
-2.16827	
-2.16827	
-2.1698	
-2.17133	
-2.16827	
-2.16675	
-2.16675	
-2.16217	
-2.16064	
-2.16064	
-2.16217	
-2.16217	
-2.16217	
-2.16827	
-2.1759	
-2.18201	
-2.19574	
-2.18201	
-2.15912	
-2.15912	
-2.16064	
-2.15607	
-2.16675	
-2.16827	
-2.16675	
-2.14996	
-2.14233	
-2.14996	
-2.16064	
-2.15607	
-2.16827	
-2.17743	
-2.17285	
-2.16827	
-2.14996	
-2.14386	
-2.15607	
-2.15912	
-2.15912	
-2.16522	
-2.17133	
-2.17438	
-2.17133	
-2.17133	
-2.17743	
-2.17896	
-2.17896	
-2.1637	
-2.1637	
-2.1637	
-2.17133	
-2.16827	
-2.16827	
-2.16675	
-2.1698	
-2.16675	
-2.14996	
-2.14844	
-2.15149	
-2.14996	
-2.15302	
-2.15149	
-2.15912	
-2.16522	
-2.16522	
-2.1698	
-2.17896	
-2.18201	
-2.17133	
-2.16675	
-2.16827	
-2.16675	
-2.16827	
-2.16675	
-2.16827	
-2.16827	
-2.16827	
-2.16675	
-2.1698	
-2.16827	
-2.16522	
-2.15912	
-2.16675	
-2.17438	
-2.16675	
-2.16675	
-2.1637	
-2.16522	
-2.16827	
-2.1698	
-2.16827	
-2.16522	
-2.16827	
-2.16217	
-2.16217	
-2.15302	
-2.15149	
-2.16675	
-2.17133	
-2.16827	
-2.17743	
-2.1759	
-2.14844	
-2.15454	
-2.16217	
-2.16217	
-2.16675	
-2.1698	
-2.16522	
-2.15912	
-2.14691	
-2.14691	
-2.15454	
-2.16522	
-2.17285	
-2.18506	
-2.19727	
-2.16675	
-2.14233	
-2.15454	
-2.16064	
-2.1637	
-2.16827	
-2.16675	
-2.17285	
-2.15607	
-2.1637	
-2.16522	
-2.15302	
-2.14539	
-2.15454	
-2.16064	
-2.16522	
-2.17285	
-2.17285	
-2.16064	
-2.16064	
-2.16675	
-2.18048	
-2.18658	
-2.17743	
-2.16827	
-2.16675	
-2.16522	
-2.16675	
-2.16522	
-2.16522	
-2.16675	
-2.1698	
-2.17133	
-2.1698	
-2.1698	
-2.16827	
-2.16675	
-2.16522	
-2.17133	
-2.1698	
-2.16827	
-2.1637	
-2.16217	
-2.16064	
-2.15912	
-2.16064	
-2.1637	
-2.1637	
-2.16522	
-2.17896	
-2.18506	
-2.1759	
-2.16217	
-2.15912	
-2.1637	
-2.16675	
-2.1637	
-2.1698	
-2.16675	
-2.16675	
-2.16827	
-2.1637	
-2.16522	
-2.1637	
-2.16827	
-2.1637	
-2.16675	
-2.16522	
-2.16217	
-2.16827	
-2.16522	
-2.17133	
-2.18048	
-2.18506	
-2.17285	
-2.16217	
-2.16827	
-2.16675	
-2.14996	
-2.14539	
-2.14844	
-2.15912	
-2.15607	
-2.1637	
-2.15912	
-2.15607	
-2.15607	
-2.16217	
-2.16522	
-2.16522	
-2.16827	
-2.16675	
-2.16827	
-2.16064	
-2.15912	
-2.1637	
-2.17133	
-2.17133	
-2.1759	
-2.1759	
-2.16827	
-2.15302	
-2.15149	
-2.15607	
-2.15607	
-2.15912	
-2.15912	
-2.16675	
-2.17285	
-2.17438	
-2.16827	
-2.17285	
-2.1698	
-2.17133	
-2.17743	
-2.17133	
-2.17285	
-2.1637	
-2.16064	
-2.1637	
-2.1637	
-2.16217	
-2.16675	
-2.1637	
-2.16827	
-2.1637	
-2.1637	
-2.16827	
-2.16675	
-2.16217	
-2.15912	
-2.1637	
-2.1698	
-2.17438	
-2.15302	
-2.16217	
-2.16827	
-2.17133	
-2.17285	
-2.17133	
-2.16522	
-2.16522	
-2.16522	
-2.15912	
-2.15454	
-2.15607	
-2.16827	
-2.1759	
-2.17438	
-2.1759	
-2.17438	
-2.17133	
-2.17285	
-2.16827	
-2.17133	
-2.1759	
-2.17133	
-2.17133	
-2.1698	
-2.16827	
-2.1637	
-2.16522	
-2.16522	
-2.16217	
-2.1698	
-2.17285	
-2.17438	
-2.1637	
-2.16522	
-2.1698	
-2.16522	
-2.16522	
-2.16217	
-2.14233	
-2.17285	
-2.18201	
-2.17896	
-2.17285	
-2.1759	
-2.17133	
-2.17133	
-2.1759	
-2.1759	
-2.17285	
-2.16827	
-2.1698	
-2.16827	
-2.16064	
-2.1637	
-2.16064	
-2.15607	
-2.15302	
-2.15149	
-2.15149	
-2.16064	
-2.16217	
-2.17743	
-2.18048	
-2.18506	
-2.18811	
-2.16522	
-2.15912	
-2.18201	
-2.18353	
-2.17133	
-2.16827	
-2.16827	
-2.17133	
-2.1698	
-2.17285	
-2.17285	
-2.17133	
-2.17133	
-2.17133	
-2.16827	
-2.17133	
-2.17133	
-2.16522	
-2.16827	
-2.16522	
-2.16522	
-2.17285	
-2.1759	
-2.1759	
-2.16827	
-2.15149	
-2.15149	
-2.16064	
-2.16064	
-2.17285	
-2.17438	
-2.17285	
-2.16827	
-2.16522	
-2.16522	
-2.16675	
-2.1637	
-2.15607	
-2.15454	
-2.15607	
-2.16217	
-2.1637	
-2.16827	
-2.16827	
-2.17896	
-2.18506	
-2.1759	
-2.16827	
-2.15454	
-2.14844	
-2.16064	
-2.15912	
-2.15302	
-2.1637	
-2.14844	
-2.15912	
-2.1698	
-2.18201	
-2.16827	
-2.16217	
-2.15302	
-2.16217	
-2.16522	
-2.16675	
-2.16217	
-2.15607	
-2.15607	
-2.16217	
-2.17133	
-2.17743	
-2.17133	
-2.16522	
-2.17285	
-2.16522	
-2.16522	
-2.16522	
-2.16522	
-2.1637	
-2.16064	
-2.15607	
-2.16217	
-2.1637	
-2.17133	
-2.1759	
-2.1698	
-2.1759	
-2.18506	
-2.18201	
-2.17438	
-2.15607	
-2.15302	
-2.15454	
-2.15607	
-2.15607	
-2.1637	
-2.16827	
-2.1759	
-2.18048	
-2.16522	
-2.1698	
-2.16675	
-2.16827	
-2.16827	
-2.17438	
-2.17743	
-2.18811	
-2.18658	
-2.18353	
-2.1637	
-2.15607	
-2.16217	
-2.16522	
-2.16217	
-2.15607	
-2.16217	
-2.16217	
-2.16217	
-2.15454	
-2.14996	
-2.15149	
-2.15454	
-2.1637	
-2.17438	
-2.18353	
-2.18353	
-2.18506	
-2.15149	
-2.13776	
-2.16064	
-2.17285	
-2.1637	
-2.16217	
-2.16827	
-2.1637	
-2.1637	
-2.17285	
-2.16675	
-2.16827	
-2.16522	
-2.15607	
-2.1637	
-2.16522	
-2.16827	
-2.16064	
-2.16064	
-2.1698	
-2.1759	
-2.18353	
-2.17896	
-2.16675	
-2.16827	
-2.1698	
-2.1698	
-2.16522	
-2.16522	
-2.17133	
-2.17133	
-2.1698	
-2.17285	
-2.17285	
-2.17133	
-2.17285	
-2.16675	
-2.16675	
-2.17133	
-2.17133	
-2.1698	
-2.16827	
-2.16827	
-2.1698	
-2.17285	
-2.17438	
-2.1759	
-2.17285	
-2.17133	
-2.16827	
-2.16675	
-2.16827	
-2.16522	
-2.16827	
-2.17438	
-2.1759	
-2.18048	
-2.18048	
-2.15912	
-2.15149	
-2.16522	
-2.16522	
-2.16827	
-2.1698	
-2.17285	
-2.16675	
-2.16675	
-2.16522	
-2.16675	
-2.16675	
-2.1698	
-2.17438	
-2.17438	
-2.17438	
-2.16827	
-2.16675	
-2.16675	
-2.16827	
-2.16827	
-2.1698	
-2.1698	
-2.17285	
-2.17438	
-2.1637	
-2.16827	
-2.16522	
-2.16827	
-2.16675	
-2.16675	
-2.16522	
-2.17133	
-2.1698	
-2.16675	
-2.16522	
-2.16675	
-2.1698	
-2.17133	
-2.18048	
-2.17743	
-2.17438	
-2.1759	
-2.17438	
-2.1698	
-2.17285	
-2.1759	
-2.17896	
-2.1698	
-2.15302	
-2.15149	
-2.15912	
-2.16064	
-2.16217	
-2.1698	
-2.17133	
-2.17285	
-2.17438	
-2.17438	
-2.17438	
-2.18658	
-2.18506	
-2.18353	
-2.18201	
-2.17743	
-2.1759	
-2.17743	
-2.17743	
-2.17438	
-2.17285	
-2.1759	
-2.17743	
-2.17438	
-2.17896	
-2.17438	
-2.17438	
-2.17438	
-2.1759	
-2.17285	
-2.1637	
-2.1698	
-2.17133	
-2.16827	
-2.16522	
-2.15454	
-2.15912	
-2.16064	
-2.16522	
-2.1698	
-2.1698	
-2.17438	
-2.19421	
-2.20184	
-2.18811	
-2.14996	
-2.16064	
-2.17133	
-2.16217	
-2.16522	
-2.17743	
-2.1759	
-2.16522	
-2.16827	
-2.1698	
-2.16827	
-2.16522	
-2.16675	
-2.16522	
-2.16064	
-2.16217	
-2.16522	
-2.1698	
-2.18048	
-2.18353	
-2.17743	
-2.17438	
-2.17438	
-2.16827	
-2.17133	
-2.17133	
-2.1698	
-2.18048	
-2.18048	
-2.18506	
-2.18048	
-2.17896	
-2.18201	
-2.17133	
-2.15912	
-2.16675	
-2.1759	
-2.17896	
-2.17743	
-2.17133	
-2.16675	
-2.16827	
-2.1698	
-2.17438	
-2.1759	
-2.1759	
-2.17438	
-2.1759	
-2.17285	
-2.1698	
-2.16064	
-2.16217	
-2.16827	
-2.16827	
-2.18048	
-2.19269	
-2.18201	
-2.16522	
-2.16675	
-2.17438	
-2.19116	
-2.1759	
-2.1698	
-2.17438	
-2.1759	
-2.17285	
-2.1759	
-2.17438	
-2.17896	
-2.18506	
-2.18811	
-2.1698	
-2.16522	
-2.16827	
-2.16675	
-2.16522	
-2.1698	
-2.17743	
-2.18048	
-2.16064	
-2.14996	
-2.16522	
-2.18201	
-2.19269	
-2.18048	
-2.1759	
-2.18048	
-2.17743	
-2.16522	
-2.15149	
-2.1637	
-2.1637	
-2.16675	
-2.17285	
-2.18201	
-2.19116	
-2.19574	
-2.16827	
-2.1637	
-2.17133	
-2.17285	
-2.17438	
-2.17285	
-2.17438	
-2.17285	
-2.17438	
-2.17438	
-2.17133	
-2.17285	
-2.1759	
-2.17743	
-2.17133	
-2.17285	
-2.16675	
-2.16217	
-2.15302	
-2.15607	
-2.16064	
-2.16217	
-2.16675	
-2.16827	
-2.16675	
-2.18048	
-2.19727	
-2.20642	
-2.20032	
-2.19574	
-2.19116	
-2.17285	
-2.17285	
-2.17743	
-2.17743	
-2.1759	
-2.17438	
-2.18048	
-2.17743	
-2.18353	
-2.18048	
-2.18506	
-2.1759	
-2.17285	
-2.18048	
-2.17896	
-2.18048	
-2.18811	
-2.17285	
-2.1698	
-2.17743	
-2.17133	
-2.17438	
-2.18353	
-2.17743	
-2.17743	
-2.1759	
-2.17285	
-2.16827	
-2.16217	
-2.15149	
-2.15454	
-2.15912	
-2.16675	
-2.17743	
-2.18658	
-2.18811	
-2.19269	
-2.20032	
-2.18353	
-2.1759	
-2.17743	
-2.18048	
-2.17896	
-2.17896	
-2.17438	
-2.17285	
-2.17285	
-2.17285	
-2.1698	
-2.16827	
-2.16675	
-2.16827	
-2.16675	
-2.16827	
-2.17285	
-2.1759	
-2.1698	
-2.17438	
-2.18201	
-2.18811	
-2.17896	
-2.16217	
-2.16522	
-2.1698	
-2.17896	
-2.17896	
-2.16522	
-2.16217	
-2.16064	
-2.16827	
-2.17743	
-2.16522	
-2.17285	
-2.1759	
-2.17438	
-2.1759	
-2.17438	
-2.17438	
-2.17438	
-2.17438	
-2.1698	
-2.17133	
-2.17133	
-2.1698	
-2.16827	
-2.16217	
-2.16064	
-2.1637	
-2.16675	
-2.17285	
-2.17743	
-2.19269	
-2.19421	
-2.19116	
-2.17896	
-2.16675	
-2.16827	
-2.1698	
-2.1698	
-2.17285	
-2.17133	
-2.16827	
-2.16827	
-2.1698	
-2.16675	
-2.16827	
-2.16675	
-2.16217	
-2.16827	
-2.1637	
-2.1637	
-2.1637	
-2.16827	
-2.16675	
-2.17438	
-2.17743	
-2.17896	
-2.18658	
-2.18201	
-2.15302	
-2.14386	
-2.15912	
-2.17133	
-2.18353	
-2.1759	
-2.17438	
-2.16522	
-2.16522	
-2.16522	
-2.16675	
-2.16522	
-2.16522	
-2.17285	
-2.17285	
-2.1759	
-2.1759	
-2.17743	
-2.1698	
-2.1637	
-2.1637	
-2.16522	
-2.17285	
-2.17896	
-2.18506	
-2.19421	
-2.19421	
-2.17285	
-2.14386	
-2.14844	
-2.15912	
-2.1637	
-2.1698	
-2.16522	
-2.14844	
-2.15302	
-2.16217	
-2.15912	
-2.15912	
-2.17438	
-2.18353	
-2.17743	
-2.17133	
-2.16522	
-2.16827	
-2.17133	
-2.18048	
-2.18048	
-2.17743	
-2.17285	
-2.17133	
-2.1698	
-2.17285	
-2.17133	
-2.17285	
-2.17285	
-2.17896	
-2.1759	
-2.16675	
-2.15607	
-2.16522	
-2.16217	
-2.16675	
-2.1698	
-2.17133	
-2.16827	
-2.16675	
-2.16675	
-2.1637	
-2.1637	
-2.16827	
-2.1637	
-2.17133	
-2.17133	
-2.16827	
-2.16827	
-2.16522	
-2.16217	
-2.16064	
-2.16675	
-2.16827	
-2.16522	
-2.1759	
-2.17896	
-2.15912	
-2.14539	
-2.15912	
-2.16675	
-2.17133	
-2.17896	
-2.17438	
-2.17743	
-2.17743	
-2.16827	
-2.16064	
-2.16064	
-2.16827	
-2.17285	
-2.1698	
-2.16522	
-2.16217	
-2.15912	
-2.15607	
-2.16064	
-2.16522	
-2.17438	
-2.16675	
-2.17133	
-2.1698	
-2.17133	
-2.16827	
-2.1698	
-2.1759	
-2.18048	
-2.1759	
-2.16217	
-2.16064	
-2.1637	
-2.16217	
-2.16522	
-2.17133	
-2.16675	
-2.15454	
-2.16522	
-2.17285	
-2.1637	
-2.16064	
-2.16064	
-2.16217	
-2.1637	
-2.1637	
-2.17438	
-2.18658	
-2.18658	
-2.18201	
-2.17743	
-2.16217	
-2.16522	
-2.16064	
-2.16522	
-2.16675	
-2.1698	
-2.16522	
-2.16064	
-2.15912	
-2.15454	
-2.15454	
-2.15302	
-2.15302	
-2.16064	
-2.16217	
-2.17133	
-2.1759	
-2.17438	
-2.17743	
-2.17896	
-2.18506	
-2.1637	
-2.15302	
-2.15149	
-2.15302	
-2.15454	
-2.16522	
-2.1759	
-2.17285	
-2.17285	
-2.17743	
-2.17743	
-2.18201	
-2.19574	
-2.18048	
-2.14844	
-2.14844	
-2.16217	
-2.16827	
-2.15607	
-2.15302	
-2.15912	
-2.15607	
-2.15454	
-2.15454	
-2.15454	
-2.16064	
-2.16522	
-2.16522	
-2.16522	
-2.17438	
-2.1698	
-2.16827	
-2.18048	
-2.18048	
-2.16827	
-2.15912	
-2.15302	
-2.15302	
-2.15607	
-2.15912	
-2.15607	
-2.16675	
-2.17285	
-2.1698	
-2.17133	
-2.17133	
-2.17896	
-2.17743	
-2.16675	
-2.1698	
-2.16675	
-2.1637	
-2.16064	
-2.16064	
-2.16064	
-2.1637	
-2.17285	
-2.17438	
-2.17896	
-2.1759	
-2.14081	
-2.14386	
-2.15454	
-2.15912	
-2.15607	
-2.16064	
-2.15302	
-2.14996	
-2.15912	
-2.16522	
-2.17743	
-2.17285	
-2.1698	
-2.1698	
-2.16064	
-2.14844	
-2.15454	
-2.16217	
-2.15912	
-2.15912	
-2.16217	
-2.16064	
-2.16827	
-2.17285	
-2.1698	
-2.16827	
-2.16827	
-2.16675	
-2.1698	
-2.16522	
-2.1637	
-2.15454	
-2.15912	
-2.16522	
-2.16522	
-2.1637	
-2.16522	
-2.16827	
-2.17285	
-2.1698	
-2.16675	
-2.17438	
-2.17743	
-2.17438	
-2.15302	
-2.14996	
-2.15607	
-2.15607	
-2.16064	
-2.15607	
-2.16064	
-2.16217	
-2.16827	
-2.17133	
-2.16827	
-2.1698	
-2.17438	
-2.17285	
-2.16675	
-2.16675	
-2.17285	
-2.18353	
-2.17438	
-2.17438	
-2.16675	
-2.16522	
-2.16064	
-2.16217	
-2.16064	
-2.1637	
-2.17133	
-2.17133	
-2.1759	
-2.17133	
-2.1637	
-2.1637	
-2.16064	
-2.1637	
-2.1698	
-2.16675	
-2.16675	
-2.17133	
-2.17438	
-2.1759	
-2.1759	
-2.1698	
-2.15607	
-2.16217	
-2.1637	
-2.16675	
-2.16064	
-2.15149	
-2.15912	
-2.16064	
-2.15607	
-2.15912	
-2.16217	
-2.16522	
-2.16675	
-2.1637	
-2.16675	
-2.17438	
-2.17133	
-2.17285	
-2.17438	
-2.17743	
-2.18048	
-2.18048	
-2.18201	
-2.18353	
-2.16675	
-2.14996	
-2.15912	
-2.1698	
-2.16827	
-2.1698	
-2.16827	
-2.16675	
-2.1698	
-2.1698	
-2.16522	
-2.1637	
-2.17285	
-2.18048	
-2.18201	
-2.16675	
-2.16217	
-2.16217	
-2.15149	
-2.14691	
-2.15454	
-2.15302	
-2.15454	
-2.15607	
-2.15302	
-2.15302	
-2.15149	
-2.15607	
-2.17438	
-2.18201	
-2.18353	
-2.18811	
-2.17438	
-2.17133	
-2.16827	
-2.16827	
-2.17438	
-2.17285	
-2.17743	
-2.17743	
-2.17743	
-2.17743	
-2.17285	
-2.15302	
-2.15454	
-2.16522	
-2.16827	
-2.16827	
-2.17133	
-2.16827	
-2.16522	
-2.16827	
-2.17133	
-2.1759	
-2.17285	
-2.17285	
-2.17285	
-2.17438	
-2.1698	
-2.17133	
-2.15149	
-2.15149	
-2.16217	
-2.16675	
-2.1637	
-2.1637	
-2.1637	
-2.16675	
-2.1637	
-2.1698	
-2.1759	
-2.1637	
-2.1637	
-2.17133	
-2.16675	
-2.1637	
-2.1637	
-2.1637	
-2.16522	
-2.16827	
-2.16827	
-2.16827	
-2.16522	
-2.1698	
-2.1698	
-2.16675	
-2.17133	
-2.17285	
-2.17285	
-2.1759	
-2.1698	
-2.15454	
-2.16064	
-2.1637	
-2.1637	
-2.1698	
-2.16827	
-2.16675	
-2.16675	
-2.16522	
-2.16522	
-2.1637	
-2.16675	
-2.1698	
-2.1698	
-2.17438	
-2.16675	
-2.17133	
-2.16522	
-2.16522	
-2.1637	
-2.15454	
-2.16064	
-2.16064	
-2.16064	
-2.16217	
-2.15912	
-2.15607	
-2.16675	
-2.17438	
-2.17896	
-2.1637	
-2.16064	
-2.17285	
-2.17743	
-2.17438	
-2.16675	
-2.16827	
-2.1637	
-2.16827	
-2.16675	
-2.17285	
-2.16675	
-2.16827	
-2.16522	
-2.1637	
-2.16827	
-2.1698	
-2.17133	
-2.17133	
-2.17133	
-2.16827	
-2.16827	
-2.16522	
-2.16675	
-2.17285	
-2.1698	
-2.15149	
-2.14844	
-2.14996	
-2.15302	
-2.15454	
-2.1637	
-2.16827	
-2.16675	
-2.16064	
-2.16522	
-2.1698	
-2.17743	
-2.1759	
-2.16827	
-2.16675	
-2.17438	
-2.17438	
-2.16827	
-2.15149	
-2.15607	
-2.1637	
-2.1637	
-2.1698	
-2.1759	
-2.17133	
-2.16064	
-2.16064	
-2.1637	
-2.1698	
-2.16522	
-2.16827	
-2.17133	
-2.17285	
-2.17133	
-2.1698	
-2.16522	
-2.1698	
-2.16827	
-2.16827	
-2.1698	
-2.17133	
-2.16827	
-2.16522	
-2.16522	
-2.16675	
-2.16675	
-2.16827	
-2.16675	
-2.1759	
-2.17438	
-2.17285	
-2.17133	
-2.16675	
-2.16675	
-2.1698	
-2.16675	
-2.17133	
-2.17133	
-2.17285	
-2.16827	
-2.1698	
-2.16675	
-2.16827	
-2.16827	
-2.1698	
-2.17438	
-2.17133	
-2.1698	
-2.16675	
-2.16827	
-2.16675	
-2.1637	
-2.16522	
-2.1698	
-2.1698	
-2.16827	
-2.1698	
-2.16675	
-2.1637	
-2.1637	
-2.16675	
-2.16827	
-2.1698	
-2.1698	
-2.16827	
-2.16064	
-2.15912	
-2.16064	
-2.16217	
-2.15607	
-2.15607	
-2.15302	
-2.15454	
-2.15912	
-2.16827	
-2.17743	
-2.17438	
-2.17743	
-2.17438	
-2.1698	
-2.1698	
-2.16522	
-2.15607	
-2.15607	
-2.16675	
-2.16675	
-2.17743	
-2.17896	
-2.19269	
-2.19269	
-2.18658	
-2.18048	
-2.15454	
-2.15302	
-2.15912	
-2.16064	
-2.16675	
-2.16827	
-2.16522	
-2.16827	
-2.16675	
-2.16522	
-2.16522	
-2.1637	
-2.1637	
-2.16522	
-2.16064	
-2.1637	
-2.15607	
-2.15607	
-2.16827	
-2.1759	
-2.16522	
-2.15912	
-2.1637	
-2.16675	
-2.1698	
-2.16217	
-2.16064	
-2.15302	
-2.1347	
-2.14081	
-2.14539	
-2.14844	
-2.15149	
-2.15912	
-2.17133	
-2.18201	
-2.18506	
-2.18658	
-2.18658	
-2.19269	
-2.19116	
-2.17743	
-2.16675	
-2.15454	
-2.16217	
-2.15454	
-2.15912	
-2.16064	
-2.1637	
-2.14996	
-2.15607	
-2.16064	
-2.1637	
-2.1759	
-2.17743	
-2.16217	
-2.15607	
-2.1637	
-2.17133	
-2.16217	
-2.16522	
-2.16064	
-2.16064	
-2.16217	
-2.1637	
-2.1637	
-2.16675	
-2.17133	
-2.16675	
-2.1698	
-2.17438	
-2.16675	
-2.16827	
-2.1698	
-2.17438	
-2.18201	
-2.18201	
-2.16827	
-2.1637	
-2.17743	
-2.1759	
-2.17285	
-2.17133	
-2.17133	
-2.16827	
-2.16827	
-2.16675	
-2.16675	
-2.1637	
-2.1637	
-2.16522	
-2.16217	
-2.16217	
-2.16675	
-2.1637	
-2.16522	
-2.17743	
-2.17743	
-2.17285	
-2.16827	
-2.16522	
-2.14691	
-2.15149	
-2.15607	
-2.16064	
-2.16064	
-2.16217	
-2.16522	
-2.16827	
-2.18048	
-2.18506	
-2.16064	
-2.15454	
-2.16827	
-2.17438	
-2.17896	
-2.1759	
-2.16827	
-2.16827	
-2.16827	
-2.17133	
-2.16675	
-2.16522	
-2.1637	
-2.1637	
-2.15912	
-2.15149	
-2.15454	
-2.15302	
-2.15454	
-2.15302	
-2.16064	
-2.1698	
-2.17285	
-2.17285	
-2.16675	
-2.17285	
-2.17896	
-2.18201	
-2.18048	
-2.1759	
-2.16064	
-2.16064	
-2.16064	
-2.16675	
-2.16522	
-2.1698	
-2.1698	
-2.17438	
-2.17133	
-2.17285	
-2.16522	
-2.16064	
-2.15302	
-2.15454	
-2.16064	
-2.15454	
-2.14996	
-2.14996	
-2.15912	
-2.15607	
-2.16217	
-2.16064	
-2.16675	
-2.1698	
-2.16675	
-2.16217	
-2.1637	
-2.16522	
-2.17896	
-2.18506	
-2.17133	
-2.15454	
-2.15607	
-2.16064	
-2.16522	
-2.16827	
-2.17438	
-2.17438	
-2.17133	
-2.1698	
-2.16675	
-2.1637	
-2.16217	
-2.15607	
-2.16064	
-2.16217	
-2.16827	
-2.16522	
-2.16675	
-2.16827	
-2.1698	
-2.16827	
-2.1637	
-2.1637	
-2.16217	
-2.15912	
-2.16217	
-2.15912	
-2.15302	
-2.15302	
-2.15302	
-2.15607	
-2.16827	
-2.1759	
-2.19116	
-2.19879	
-2.19116	
-2.17285	
-2.16675	
-2.16064	
-2.16064	
-2.15912	
-2.1698	
-2.16675	
-2.16675	
-2.16675	
-2.1698	
-2.16675	
-2.16827	
-2.16827	
-2.16675	
-2.15912	
-2.15149	
-2.15302	
-2.15454	
-2.15607	
-2.16064	
-2.16217	
-2.16217	
-2.1698	
-2.1759	
-2.17743	
-2.1698	
-2.16675	
-2.16827	
-2.1637	
-2.16522	
-2.16675	
-2.16064	
-2.15912	
-2.1637	
-2.16675	
-2.16827	
-2.1759	
-2.18048	
-2.17438	
-2.16064	
-2.16064	
-2.16675	
-2.17133	
-2.17133	
-2.1698	
-2.13318	
-2.13165	
-2.14539	
-2.14691	
-2.15302	
-2.16217	
-2.1759	
-2.17896	
-2.19116	
-2.16675	
-2.16675	
-2.1637	
-2.1637	
-2.16064	
-2.1637	
-2.16217	
-2.16217	
-2.16064	
-2.16064	
-2.16217	
-2.16217	
-2.16522	
-2.15912	
-2.1637	
-2.16827	
-2.17133	
-2.17438	
-2.16827	
-2.16675	
-2.16675	
-2.17133	
-2.1759	
-2.17896	
-2.16827	
-2.16522	
-2.15454	
-2.14996	
-2.15454	
-2.16217	
-2.1759	
-2.18048	
-2.18353	
-2.1637	
-2.15302	
-2.16675	
-2.1759	
-2.16827	
-2.17438	
-2.17133	
-2.1698	
-2.17285	
-2.17438	
-2.16827	
-2.16675	
-2.16217	
-2.1637	
-2.15912	
-2.16064	
-2.1637	
-2.16827	
-2.1698	
-2.17285	
-2.1698	
-2.16827	
-2.16217	
-2.15607	
-2.16064	
-2.16217	
-2.15912	
-2.16217	
-2.1698	
-2.18201	
-2.17896	
-2.18353	
-2.18353	
-2.18048	
-2.18048	
-2.17896	
-2.17133	
-2.1759	
-2.17896	
-2.1637	
-2.15149	
-2.16217	
-2.16827	
-2.16522	
-2.16827	
-2.16675	
-2.17133	
-2.17285	
-2.17133	
-2.17743	
-2.17743	
-2.18201	
-2.18201	
-2.17896	
-2.16827	
-2.16675	
-2.16675	
-2.16675	
-2.1698	
-2.17133	
-2.17438	
-2.1759	
-2.1759	
-2.1759	
-2.16827	
-2.16522	
-2.17133	
-2.17133	
-2.16217	
-2.15912	
-2.15912	
-2.1637	
-2.1637	
-2.16675	
-2.17285	
-2.17896	
-2.17438	
-2.18048	
-2.1759	
-2.17133	
-2.16827	
-2.16827	
-2.17133	
-2.1698	
-2.17133	
-2.17133	
-2.1698	
-2.1698	
-2.16522	
-2.16675	
-2.1637	
-2.16675	
-2.16827	
-2.16675	
-2.1637	
-2.16064	
-2.16217	
-2.16217	
-2.16827	
-2.17438	
-2.1759	
-2.19116	
-2.19574	
-2.19116	
-2.1698	
-2.16217	
-2.15607	
-2.14386	
-2.16064	
-2.16522	
-2.16675	
-2.16217	
-2.15454	
-2.15302	
-2.15607	
-2.16217	
-2.1637	
-2.17133	
-2.17438	
-2.16827	
-2.17438	
-2.17133	
-2.14844	
-2.15607	
-2.17896	
-2.18048	
-2.18658	
-2.18048	
-2.1637	
-2.16217	
-2.1637	
-2.16064	
-2.16064	
-2.16522	
-2.16522	
-2.16675	
-2.17438	
-2.17438	
-2.1759	
-2.17285	
-2.17133	
-2.17133	
-2.17133	
-2.1637	
-2.16522	
-2.16522	
-2.16675	
-2.1637	
-2.16675	
-2.17133	
-2.1698	
-2.16675	
-2.16827	
-2.16827	
-2.16522	
-2.16827	
-2.16675	
-2.16827	
-2.16675	
-2.16522	
-2.1637	
-2.1637	
-2.16827	
-2.17285	
-2.16522	
-2.1637	
-2.1698	
-2.17285	
-2.1698	
-2.16827	
-2.17133	
-2.17438	
-2.17438	
-2.17743	
-2.18048	
-2.17743	
-2.17133	
-2.17285	
-2.16675	
-2.16827	
-2.16827	
-2.16522	
-2.16675	
-2.1698	
-2.17285	
-2.17743	
-2.18048	
-2.1698	
-2.1637	
-2.16064	
-2.15607	
-2.15302	
-2.15454	
-2.15912	
-2.1637	
-2.1698	
-2.18201	
-2.20947	
-2.21252	
-2.19879	
-2.18201	
-2.16217	
-2.16827	
-2.16827	
-2.16522	
-2.16675	
-2.16675	
-2.1698	
-2.1698	
-2.16827	
-2.16827	
-2.16217	
-2.16522	
-2.16827	
-2.1698	
-2.17896	
-2.18048	
-2.17438	
-2.16675	
-2.14691	
-2.14996	
-2.15454	
-2.16064	
-2.1698	
-2.18353	
-2.19269	
-2.18506	
-2.17896	
-2.17438	
-2.16827	
-2.17743	
-2.1759	
-2.16522	
-2.16217	
-2.16217	
-2.15912	
-2.15607	
-2.15454	
-2.15454	
-2.15454	
-2.15607	
-2.1637	
-2.17133	
-2.18048	
-2.19421	
-2.19116	
-2.17438	
-2.15912	
-2.16064	
-2.16675	
-2.16522	
-2.16827	
-2.16827	
-2.16522	
-2.1637	
-2.16522	
-2.16675	
-2.16827	
-2.17133	
-2.1698	
-2.17133	
-2.16522	
-2.16522	
-2.16064	
-2.16522	
-2.1637	
-2.16064	
-2.15912	
-2.16064	
-2.16217	
-2.16827	
-2.16675	
-2.1637	
-2.16827	
-2.17133	
-2.18201	
-2.18048	
-2.17285	
-2.15607	
-2.16675	
-2.16827	
-2.16522	
-2.16064	
-2.16064	
-2.17133	
-2.1759	
-2.17285	
-2.17438	
-2.16217	
-2.14996	
-2.16217	
-2.17285	
-2.18048	
-2.17743	
-2.16675	
-2.16522	
-2.16675	
-2.16522	
-2.16217	
-2.15912	
-2.15302	
-2.15912	
-2.15912	
-2.1637	
-2.16522	
-2.17743	
-2.17896	
-2.19574	
-2.19879	
-2.1698	
-2.15302	
-2.14539	
-2.14691	
-2.14844	
-2.15302	
-2.15607	
-2.1637	
-2.16522	
-2.17438	
-2.18201	
-2.17743	
-2.17285	
-2.17133	
-2.17438	
-2.17438	
-2.17438	
-2.1698	
-2.17133	
-2.16675	
-2.1637	
-2.15912	
-2.16064	
-2.15912	
-2.15912	
-2.15912	
-2.15302	
-2.15607	
-2.16064	
-2.16064	
-2.16827	
-2.16675	
-2.16675	
-2.17285	
-2.17896	
-2.17896	
-2.1759	
-2.17133	
-2.1698	
-2.1698	
-2.16827	
-2.16522	
-2.16827	
-2.1637	
-2.16827	
-2.16217	
-2.16064	
-2.16064	
-2.16522	
-2.1698	
-2.17285	
-2.18048	
-2.1698	
-2.15149	
-2.15302	
-2.15912	
-2.15912	
-2.15912	
-2.14996	
-2.14996	
-2.15149	
-2.15607	
-2.1759	
-2.18811	
-2.17743	
-2.17438	
-2.17133	
-2.16522	
-2.1698	
-2.15912	
-2.15149	
-2.1637	
-2.17438	
-2.18506	
-2.20184	
-2.19116	
-2.18353	
-2.16827	
-2.14233	
-2.14081	
-2.15607	
-2.15607	
-2.15607	
-2.16522	
-2.16522	
-2.16675	
-2.16064	
-2.1637	
-2.17438	
-2.18506	
-2.18048	
-2.17133	
-2.1698	
-2.16675	
-2.16675	
-2.16522	
-2.16675	
-2.1637	
-2.1698	
-2.17285	
-2.16827	
-2.16217	
-2.16522	
-2.16522	
-2.16675	
-2.16827	
-2.17438	
-2.17438	
-2.1698	
-2.17133	
-2.16217	
-2.1637	
-2.16217	
-2.1637	
-2.16522	
-2.1698	
-2.17133	
-2.17438	
-2.17133	
-2.17438	
-2.17896	
-2.17896	
-2.17896	
-2.18048	
-2.17743	
-2.17133	
-2.17438	
-2.17133	
-2.16064	
-2.15912	
-2.16064	
-2.16217	
-2.15912	
-2.1637	
-2.16217	
-2.16064	
-2.16827	
-2.17743	
-2.17896	
-2.1759	
-2.17285	
-2.17133	
-2.17133	
-2.15912	
-2.14691	
-2.15149	
-2.16522	
-2.16827	
-2.16675	
-2.17133	
-2.18201	
-2.19879	
-2.19421	
-2.16522	
-2.16064	
-2.16522	
-2.16217	
-2.16522	
-2.16675	
-2.16522	
-2.16522	
-2.1637	
-2.1637	
-2.16827	
-2.17133	
-2.17133	
-2.16675	
-2.17133	
-2.16675	
-2.16064	
-2.1637	
-2.16675	
-2.17896	
-2.17896	
-2.1759	
-2.17438	
-2.17133	
-2.16675	
-2.1759	
-2.17438	
-2.1759	
-2.17285	
-2.17438	
-2.17285	
-2.17133	
-2.17133	
-2.1759	
-2.1759	
-2.17285	
-2.16522	
-2.17438	
-2.17438	
-2.17285	
-2.1698	
-2.16675	
-2.17133	
-2.16827	
-2.17133	
-2.17743	
-2.17743	
-2.17285	
-2.16675	
-2.15912	
-2.16217	
-2.16217	
-2.17133	
-2.1637	
-2.16827	
-2.1759	
-2.18811	
-2.18658	
-2.18201	
-2.1759	
-2.15607	
-2.16064	
-2.16675	
-2.16522	
-2.16217	
-2.1637	
-2.16522	
-2.16675	
-2.16522	
-2.1698	
-2.1698	
-2.17133	
-2.1759	
-2.16064	
-2.16522	
-2.1698	
-2.1698	
-2.17285	
-2.17743	
-2.17285	
-2.1698	
-2.16675	
-2.16217	
-2.16827	
-2.17743	
-2.17285	
-2.16827	
-2.1759	
-2.17743	
-2.17285	
-2.17285	
-2.17438	
-2.16827	
-2.15302	
-2.15454	
-2.15912	
-2.16217	
-2.1637	
-2.1637	
-2.17133	
-2.17743	
-2.17896	
-2.1637	
-2.17133	
-2.17285	
-2.16675	
-2.17133	
-2.17285	
-2.1759	
-2.17285	
-2.17133	
-2.17133	
-2.1759	
-2.17743	
-2.1759	
-2.17285	
-2.16675	
-2.16217	
-2.16675	
-2.17438	
-2.1698	
-2.17438	
-2.17285	
-2.16827	
-2.1698	
-2.1698	
-2.1698	
-2.17285	
-2.1759	
-2.1759	
-2.17133	
-2.17285	
-2.1698	
-2.16675	
-2.15912	
-2.15149	
-2.15302	
-2.15607	
-2.1637	
-2.17285	
-2.18506	
-2.19574	
-2.20337	
-2.17743	
-2.1637	
-2.15149	
-2.15454	
-2.16217	
-2.16522	
-2.16675	
-2.16827	
-2.17133	
-2.1698	
-2.17285	
-2.17285	
-2.1637	
-2.17133	
-2.16827	
-2.16522	
-2.15912	
-2.15302	
-2.15454	
-2.1637	
-2.1759	
-2.1759	
-2.1759	
-2.17133	
-2.17743	
-2.17743	
-2.1759	
-2.17743	
-2.1759	
-2.17438	
-2.1759	
-2.17133	
-2.1698	
-2.16675	
-2.1698	
-2.1698	
-2.17285	
-2.17743	
-2.17896	
-2.17896	
-2.17896	
-2.18201	
-2.17896	
-2.18048	
-2.18201	
-2.18506	
-2.19116	
-2.1759	
-2.1759	
-2.17438	
-2.17743	
-2.17743	
-2.17743	
-2.17743	
-2.17743	
-2.18048	
-2.1759	
-2.17133	
-2.17133	
-2.16827	
-2.16522	
-2.1759	
-2.17896	
-2.18353	
-2.18048	
-2.1698	
-2.17438	
-2.18201	
-2.19421	
-2.17896	
-2.15607	
-2.16217	
-2.16675	
-2.16675	
-2.16522	
-2.1698	
-2.16675	
-2.16217	
-2.16217	
-2.16217	
-2.1698	
-2.1698	
-2.1637	
-2.17285	
-2.18048	
-2.18353	
-2.17743	
-2.17438	
-2.1759	
-2.1759	
-2.1759	
-2.17133	
-2.1759	
-2.1759	
-2.18353	
-2.18811	
-2.20184	
-2.19116	
-2.16675	
-2.15912	
-2.1637	
-2.16675	
-2.17285	
-2.17438	
-2.17285	
-2.16675	
-2.16522	
-2.16675	
-2.1698	
-2.16827	
-2.16522	
-2.16675	
-2.16522	
-2.16522	
-2.16675	
-2.16522	
-2.1698	
-2.1698	
-2.17133	
-2.17285	
-2.17743	
-2.19269	
-2.18506	
-2.17743	
-2.17743	
-2.1759	
-2.1759	
-2.17438	
-2.17896	
-2.17743	
-2.17438	
-2.1698	
-2.18048	
-2.18048	
-2.17743	
-2.18353	
-2.18201	
-2.17896	
-2.17438	
-2.17133	
-2.17438	
-2.17133	
-2.1698	
-2.1759	
-2.17896	
-2.18353	
-2.18658	
-2.17285	
-2.17743	
-2.1759	
-2.16217	
-2.15912	
-2.16217	
-2.16522	
-2.16827	
-2.17743	
-2.1759	
-2.17896	
-2.18353	
-2.19116	
-2.19574	
-2.19879	
-2.17285	
-2.16522	
-2.16827	
-2.16675	
-2.16827	
-2.16827	
-2.17285	
-2.17743	
-2.18353	
-2.18201	
-2.16675	
-2.16522	
-2.16675	
-2.1637	
-2.16217	
-2.1637	
-2.16827	
-2.1759	
-2.1759	
-2.18048	
-2.18506	
-2.18353	
-2.18201	
-2.18353	
-2.18658	
-2.18658	
-2.17896	
-2.17896	
-2.17743	
-2.1759	
-2.17133	
-2.1759	
-2.18201	
-2.18353	
-2.17896	
-2.16827	
-2.1698	
-2.16675	
-2.18048	
-2.18201	
-2.18201	
-2.18201	
-2.18353	
-2.18353	
-2.17438	
-2.15454	
-2.16522	
-2.17133	
-2.17743	
-2.17285	
-2.1698	
-2.17743	
-2.17285	
-2.17133	
-2.1759	
-2.19269	
-2.18353	
-2.18506	
-2.18353	
-2.18811	
-2.18811	
-2.17743	
-2.15607	
-2.1637	
-2.17133	
-2.17438	
-2.18506	
-2.19269	
-2.19116	
-2.18048	
-2.17896	
-2.18048	
-2.17743	
-2.17438	
-2.17896	
-2.1698	
-2.16522	
-2.16522	
-2.1637	
-2.1698	
-2.1759	
-2.17743	
-2.17896	
-2.18506	
-2.19421	
-2.1698	
-2.16827	
-2.17438	
-2.1759	
-2.18811	
-2.19269	
-2.18658	
-2.18048	
-2.18811	
-2.18658	
-2.17896	
-2.1698	
-2.17438	
-2.18048	
-2.18048	
-2.16675	
-2.16675	
-2.1759	
-2.18048	
-2.17896	
-2.17896	
-2.18201	
-2.18811	
-2.19421	
-2.19727	
-2.19574	
-2.19269	
-2.16827	
-2.15607	
-2.16522	
-2.16522	
-2.1698	
-2.1759	
-2.18353	
-2.18811	
-2.17896	
-2.17133	
-2.1698	
-2.16522	
-2.16827	
-2.1698	
-2.17438	
-2.17285	
-2.1759	
-2.19269	
-2.19727	
-2.19269	
-2.19727	
-2.18048	
-2.17438	
-2.17896	
-2.17438	
-2.17438	
-2.17285	
-2.17743	
-2.18353	
-2.18201	
-2.18201	
-2.18506	
-2.18506	
-2.18353	
-2.17743	
-2.1759	
-2.17896	
-2.1759	
-2.17896	
-2.17743	
-2.17285	
-2.17438	
-2.1759	
-2.17743	
-2.17743	
-2.18048	
-2.18506	
-2.17896	
-2.17438	
-2.16064	
-2.16827	
-2.18048	
-2.17285	
-2.17438	
-2.18201	
-2.18506	
-2.18201	
-2.17438	
-2.1698	
-2.17438	
-2.1698	
-2.17285	
-2.17438	
-2.17743	
-2.18201	
-2.17896	
-2.17438	
-2.17285	
-2.17743	
-2.1759	
-2.17438	
-2.17896	
-2.18353	
-2.18811	
-2.19879	
-2.20337	
-2.18201	
-2.16827	
-2.17743	
-2.18658	
-2.18506	
-2.18811	
-2.17133	
-2.18048	
-2.18048	
-2.18506	
-2.18353	
-2.19269	
-2.19421	
-2.19574	
-2.18811	
-2.18201	
-2.17743	
-2.16522	
-2.15454	
-2.15912	
-2.1698	
-2.17133	
-2.17896	
-2.18353	
-2.19727	
-2.20032	
-2.19116	
-2.18658	
-2.18811	
-2.19269	
-2.18811	
-2.16827	
-2.16217	
-2.16675	
-2.1698	
-2.17438	
-2.18201	
-2.18658	
-2.19421	
-2.19116	
-2.1759	
-2.18048	
-2.17438	
-2.17743	
-2.17896	
-2.18201	
-2.19116	
-2.18506	
-2.19269	
-2.19116	
-2.18658	
-2.18506	
-2.18353	
-2.17896	
-2.17896	
-2.17743	
-2.17285	
-2.17285	
-2.17285	
-2.18353	
-2.18506	
-2.19116	
-2.19421	
-2.20032	
-2.19269	
-2.17133	
-2.17133	
-2.17896	
-2.18201	
-2.18658	
-2.18811	
-2.18658	
-2.18353	
-2.18048	
-2.17743	
-2.1759	
-2.17743	
-2.1759	
-2.17743	
-2.17743	
-2.1759	
-2.17438	
-2.16827	
-2.17133	
-2.17896	
-2.17743	
-2.18658	
-2.19727	
-2.20337	
-2.19421	
-2.1698	
-2.18201	
-2.17743	
-2.17438	
-2.17743	
-2.18506	
-2.18811	
-2.19116	
-2.19421	
-2.18811	
-2.19116	
-2.18506	
-2.1698	
-2.16827	
-2.17438	
-2.18658	
-2.19269	
-2.18048	
-2.18048	
-2.17743	
-2.17896	
-2.19574	
-2.19727	
-2.17896	
-2.17285	
-2.17743	
-2.18201	
-2.19421	
-2.18811	
-2.18811	
-2.20032	
-2.18658	
-2.17896	
-2.17743	
-2.18201	
-2.18048	
-2.18048	
-2.18811	
-2.18811	
-2.18353	
-2.1759	
-2.18048	
-2.17896	
-2.18201	
-2.17896	
-2.18201	
-2.18353	
-2.18506	
-2.18506	
-2.18506	
-2.18506	
-2.18658	
-2.18201	
-2.18201	
-2.18048	
-2.18201	
-2.18048	
-2.17896	
-2.17438	
-2.1759	
-2.17743	
-2.17743	
-2.18506	
-2.19421	
-2.19269	
-2.19421	
-2.18506	
-2.18811	
-2.18811	
-2.18658	
-2.17896	
-2.17896	
-2.18353	
-2.18506	
-2.18048	
-2.18048	
-2.18353	
-2.18658	
-2.18353	
-2.18506	
-2.18506	
-2.18506	
-2.19116	
-2.18506	
-2.18658	
-2.18048	
-2.17743	
-2.17438	
-2.17896	
-2.17896	
-2.18201	
-2.18353	
-2.19727	
-2.20184	
-2.18811	
-2.18048	
-2.19116	
-2.19879	
-2.16675	
-2.14844	
-2.14996	
-2.16522	
-2.1698	
-2.17133	
-2.17896	
-2.18201	
-2.18353	
-2.18353	
-2.18658	
-2.19421	
-2.19421	
-2.20032	
-2.18658	
-2.18506	
-2.18658	
-2.18201	
-2.17896	
-2.17896	
-2.18048	
-2.18353	
-2.18811	
-2.20032	
-2.20337	
-2.20032	
-2.1759	
-2.1637	
-2.1698	
-2.17438	
-2.1759	
-2.18201	
-2.17743	
-2.18201	
-2.17896	
-2.17743	
-2.18201	
-2.18811	
-2.19116	
-2.18048	
-2.18353	
-2.18506	
-2.18201	
-2.17285	
-2.1698	
-2.17896	
-2.18506	
-2.18353	
-2.19116	
-2.19727	
-2.18658	
-2.18201	
-2.18048	
-2.17896	
-2.18506	
-2.18048	
-2.18048	
-2.18201	
-2.18048	
-2.18048	
-2.1759	
-2.17285	
-2.1759	
-2.1759	
-2.17438	
-2.1759	
-2.18201	
-2.19269	
-2.19421	
-2.19574	
-2.19269	
-2.18048	
-2.18506	
-2.19269	
-2.18811	
-2.18811	
-2.18353	
-2.16675	
-2.16675	
-2.17285	
-2.1759	
-2.17438	
-2.17743	
-2.1759	
-2.17896	
-2.17285	
-2.18201	
-2.19269	
-2.19116	
-2.18658	
-2.19421	
-2.19879	
-2.19727	
-2.17896	
-2.1759	
-2.18353	
-2.18811	
-2.19116	
-2.18811	
-2.19269	
-2.17285	
-2.17438	
-2.17896	
-2.17896	
-2.18201	
-2.18506	
-2.18353	
-2.18658	
-2.18506	
-2.18353	
-2.17438	
-2.17438	
-2.17743	
-2.1759	
-2.18048	
-2.18506	
-2.18811	
-2.18506	
-2.17743	
-2.18201	
-2.18658	
-2.18201	
-2.17743	
-2.18201	
-2.18658	
-2.18811	
-2.18353	
-2.18658	
-2.18506	
-2.17743	
-2.17438	
-2.18201	
-2.18658	
-2.19269	
-2.19879	
-2.19879	
-2.19421	
-2.19421	
-2.18811	
-2.18506	
-2.18658	
-2.18811	
-2.18811	
-2.18201	
-2.17896	
-2.18353	
-2.18201	
-2.18353	
-2.18506	
-2.18048	
-2.17896	
-2.18353	
-2.18201	
-2.18201	
-2.19116	
-2.18658	
-2.18506	
-2.18048	
-2.18353	
-2.18353	
-2.18811	
-2.19116	
-2.19269	
-2.18811	
-2.18658	
-2.18658	
-2.18658	
-2.18658	
-2.18353	
-2.18048	
-2.18048	
-2.18048	
-2.18353	
-2.18506	
-2.18658	
-2.19269	
-2.18658	
-2.18353	
-2.18353	
-2.18353	
-2.17896	
-2.18658	
-2.18353	
-2.18201	
-2.18353	
-2.18048	
-2.18201	
-2.18048	
-2.18048	
-2.17438	
-2.17743	
-2.18048	
-2.17896	
-2.17896	
-2.18506	
-2.19574	
-2.19879	
-2.19116	
-2.18811	
-2.18353	
-2.18506	
-2.18658	
-2.18658	
-2.18811	
-2.18353	
-2.18506	
-2.19269	
-2.19116	
-2.19421	
-2.19879	
-2.20642	
-2.20795	
-2.19116	
-2.18201	
-2.16675	
-2.16064	
-2.15607	
-2.17896	
-2.18506	
-2.18658	
-2.19879	
-2.19879	
-2.18201	
-2.18811	
-2.20032	
-2.20032	
-2.17743	
-2.16522	
-2.17133	
-2.18506	
-2.18353	
-2.18201	
-2.18201	
-2.17896	
-2.17896	
-2.17743	
-2.17743	
-2.18201	
-2.18201	
-2.18658	
-2.19116	
-2.19421	
-2.18658	
-2.18353	
-2.18048	
-2.18353	
-2.18658	
-2.18353	
-2.18048	
-2.18201	
-2.18506	
-2.18658	
-2.18353	
-2.18658	
-2.18658	
-2.18201	
-2.17896	
-2.18048	
-2.18048	
-2.18201	
-2.18048	
-2.19269	
-2.19116	
-2.19421	
-2.20947	
-2.21558	
-2.20642	
-2.19116	
-2.17743	
-2.18506	
-2.18506	
-2.18658	
-2.18506	
-2.18811	
-2.18506	
-2.18811	
-2.18506	
-2.18506	
-2.18658	
-2.19116	
-2.19421	
-2.19879	
-2.19879	
-2.19421	
-2.18353	
-2.17743	
-2.17743	
-2.18506	
-2.19116	
-2.18353	
-2.18811	
-2.18506	
-2.18658	
-2.18811	
-2.18811	
-2.18506	
-2.18201	
-2.18353	
-2.18506	
-2.18506	
-2.18048	
-2.18048	
-2.18048	
-2.18506	
-2.18658	
-2.19421	
-2.19116	
-2.19269	
-2.19879	
-2.20337	
-2.18658	
-2.19269	
-2.19269	
-2.16827	
-2.1759	
-2.18353	
-2.18201	
-2.19116	
-2.18811	
-2.18811	
-2.18353	
-2.18353	
-2.18353	
-2.19574	
-2.19116	
-2.19269	
-2.18811	
-2.18811	
-2.18811	
-2.18353	
-2.19116	
-2.19269	
-2.19574	
-2.19574	
-2.20184	
-2.20032	
-2.18201	
-2.1759	
-2.17743	
-2.18506	
-2.18506	
-2.18353	
-2.18353	
-2.18506	
-2.19269	
-2.19116	
-2.18201	
-2.18048	
-2.18048	
-2.18658	
-2.18658	
-2.18658	
-2.18201	
-2.18048	
-2.17896	
-2.18201	
-2.19421	
-2.19727	
-2.19879	
-2.20337	
-2.20642	
-2.21405	
-2.22321	
-2.20642	
-2.18811	
-2.17438	
-2.17133	
-2.18048	
-2.1759	
-2.17896	
-2.18353	
-2.17896	
-2.17743	
-2.18048	
-2.18048	
-2.18201	
-2.18201	
-2.18353	
-2.18658	
-2.18811	
-2.18658	
-2.18353	
-2.18658	
-2.18506	
-2.18353	
-2.18811	
-2.19116	
-2.19421	
-2.20032	
-2.20184	
-2.1698	
-2.16675	
-2.17438	
-2.17743	
-2.18201	
-2.18353	
-2.19116	
-2.18201	
-2.18506	
-2.18506	
-2.18201	
-2.19116	
-2.18658	
-2.19421	
-2.19574	
-2.19421	
-2.19727	
-2.17896	
-2.16064	
-2.1698	
-2.17896	
-2.17896	
-2.17743	
-2.18353	
-2.18658	
-2.18353	
-2.18353	
-2.18353	
-2.17896	
-2.18353	
-2.18201	
-2.18048	
-2.18201	
-2.18353	
-2.18201	
-2.18201	
-2.17896	
-2.18353	
-2.18658	
-2.18811	
-2.18201	
-2.18658	
-2.19116	
-2.19727	
-2.20032	
-2.19727	
-2.20032	
-2.18506	
-2.1698	
-2.16675	
-2.17438	
-2.18506	
-2.18353	
-2.18353	
-2.18506	
-2.18811	
-2.19574	
-2.18658	
-2.17285	
-2.17285	
-2.18048	
-2.18658	
-2.18353	
-2.16827	
-2.17285	
-2.17896	
-2.17896	
-2.18048	
-2.18048	
-2.17896	
-2.18048	
-2.18811	
-2.20032	
-2.20184	
-2.20795	
-2.20337	
-2.17743	
-2.17896	
-2.17743	
-2.18048	
-2.1759	
-2.17438	
-2.17438	
-2.18048	
-2.18506	
-2.19574	
-2.19574	
-2.19727	
-2.18353	
-2.19727	
-2.19727	
-2.17743	
-2.17743	
-2.18048	
-2.18811	
-2.18658	
-2.18506	
-2.17896	
-2.18506	
-2.18658	
-2.18811	
-2.19116	
-2.18811	
-2.18811	
-2.18353	
-2.18048	
-2.18201	
-2.18506	
-2.19116	
-2.19269	
-2.18658	
-2.19269	
-2.19116	
-2.19116	
-2.19421	
-2.19879	
-2.19421	
-2.19421	
-2.19269	
-2.18506	
-2.18506	
-2.18658	
-2.18658	
-2.19116	
-2.19269	
-2.18811	
-2.1759	
-2.18353	
-2.18658	
-2.19269	
-2.19421	
-2.17896	
-2.1759	
-2.18658	
-2.18201	
-2.18506	
-2.18353	
-2.18353	
-2.18048	
-2.18353	
-2.18811	
-2.19421	
-2.19116	
-2.17743	
-2.17896	
-2.18048	
-2.18506	
-2.19421	
-2.18658	
-2.18506	
-2.19269	
-2.18353	
-2.18201	
-2.18201	
-2.18353	
-2.18201	
-2.18048	
-2.18506	
-2.18353	
-2.18201	
-2.18201	
-2.18353	
-2.18201	
-2.18811	
-2.19421	
-2.19269	
-2.19116	
-2.19574	
-2.18201	
-2.1759	
-2.17743	
-2.17743	
-2.19116	
-2.20337	
-2.20032	
-2.18506	
-2.17743	
-2.18658	
-2.18506	
-2.18506	
-2.19879	
-2.19879	
-2.17743	
-2.1759	
-2.18811	
-2.19116	
-2.18811	
-2.19116	
-2.18506	
-2.18506	
-2.18811	
-2.19574	
-2.19574	
-2.19879	
-2.19421	
-2.17896	
-2.18506	
-2.18201	
-2.18353	
-2.18658	
-2.18811	
-2.19116	
-2.19269	
-2.18811	
-2.18201	
-2.18353	
-2.18506	
-2.18506	
-2.18506	
-2.19116	
-2.19269	
-2.19421	
-2.19269	
-2.18658	
-2.19421	
-2.19727	
-2.19116	
-2.19269	
-2.19269	
-2.19116	
-2.18353	
-2.18353	
-2.18353	
-2.18353	
-2.18353	
-2.18658	
-2.18658	
-2.19116	
-2.19421	
-2.19879	
-2.19574	
-2.19879	
-2.20337	
-2.19269	
-2.18506	
-2.18353	
-2.18658	
-2.18811	
-2.19727	
-2.20184	
-2.20337	
-2.18658	
-2.18658	
-2.19574	
-2.19727	
-2.19727	
-2.18048	
-2.18048	
-2.18353	
-2.18658	
-2.18658	
-2.18811	
-2.19116	
-2.18658	
-2.18506	
-2.18048	
-2.18506	
-2.18048	
-2.18201	
-2.18658	
-2.17743	
-2.18201	
-2.18658	
-2.19116	
-2.19116	
-2.19879	
-2.20184	
-2.20642	
-2.211	
-2.19421	
-2.1759	
-2.17133	
-2.1759	
-2.17896	
-2.18201	
-2.18353	
-2.18811	
-2.18506	
-2.18658	
-2.18506	
-2.18201	
-2.19269	
-2.19727	
-2.20642	
-2.19269	
-2.17896	
-2.18048	
-2.18658	
-2.18658	
-2.18201	
-2.18048	
-2.18506	
-2.18353	
-2.18201	
-2.18048	
-2.17896	
-2.18048	
-2.18201	
-2.18658	
-2.18506	
-2.19269	
-2.19879	
-2.20337	
-2.2049	
-2.19574	
-2.18201	
-2.18506	
-2.18658	
-2.18353	
-2.18658	
-2.18658	
-2.18811	
-2.18811	
-2.19116	
-2.20032	
-2.20947	
-2.20642	
-2.18506	
-2.17133	
-2.17133	
-2.17133	
-2.1759	
-2.17743	
-2.18658	
-2.19421	
-2.18353	
-2.18353	
-2.18506	
-2.17285	
-2.17743	
-2.18353	
-2.18658	
-2.19421	
-2.19269	
-2.18658	
-2.18811	
-2.18658	
-2.18658	
-2.18658	
-2.19421	
-2.19269	
-2.19574	
-2.19879	
-2.19421	
-2.18658	
-2.18506	
-2.19116	
-2.18658	
-2.19116	
-2.18811	
-2.19116	
-2.19269	
-2.18811	
-2.18811	
-2.18201	
-2.18811	
-2.18658	
-2.18658	
-2.19421	
-2.19269	
-2.19269	
-2.19727	
-2.19269	
-2.17896	
-2.17743	
-2.18048	
-2.17896	
-2.18048	
-2.18658	
-2.18048	
-2.17743	
-2.18506	
-2.18201	
-2.18201	
-2.19269	
-2.19421	
-2.18353	
-2.18811	
-2.18658	
-2.18506	
-2.19421	
-2.18201	
-2.18353	
-2.19727	
-2.20032	
-2.19116	
-2.17438	
-2.1759	
-2.18048	
-2.19421	
-2.19421	
-2.19269	
-2.19574	
-2.19574	
-2.19421	
-2.18506	
-2.18353	
-2.18201	
-2.18658	
-2.18811	
-2.19116	
-2.19269	
-2.18353	
-2.17896	
-2.19269	
-2.20032	
-2.19879	
-2.18048	
-2.18353	
-2.19116	
-2.19269	
-2.19421	
-2.19879	
-2.20642	
-2.2049	
-2.20642	
-2.18353	
-2.18201	
-2.19116	
-2.19116	
-2.18658	
-2.18658	
-2.18811	
-2.19116	
-2.19421	
-2.19116	
-2.19727	
-2.19879	
-2.19574	
-2.18658	
-2.17438	
-2.17896	
-2.18048	
-2.18506	
-2.18506	
-2.19574	
-2.19421	
-2.19421	
-2.19421	
-2.19116	
-2.19574	
-2.19421	
-2.19269	
-2.19269	
-2.19421	
-2.18658	
-2.19421	
-2.19879	
-2.20032	
-2.19269	
-2.19269	
-2.19269	
-2.19116	
-2.18811	
-2.19269	
-2.19421	
-2.19116	
-2.19421	
-2.18658	
-2.19421	
-2.19727	
-2.18811	
-2.17896	
-2.19574	
-2.20032	
-2.19116	
-2.2049	
-2.19727	
-2.17896	
-2.19116	
-2.18811	
-2.18811	
-2.18811	
-2.18658	
-2.18658	
-2.19421	
-2.19727	
-2.19574	
-2.19269	
-2.19421	
-2.19269	
-2.19116	
-2.18811	
-2.18811	
-2.18811	
-2.19116	
-2.18811	
-2.18658	
-2.18506	
-2.18658	
-2.19116	
-2.19269	
-2.19269	
-2.18658	
-2.17896	
-2.18201	
-2.19269	
-2.20184	
-2.19879	
-2.19727	
-2.2049	
-2.20184	
-2.19879	
-2.20184	
-2.19727	
-2.19421	
-2.18811	
-2.19116	
-2.18811	
-2.19116	
-2.18811	
-2.19269	
-2.18811	
-2.19421	
-2.2049	
-2.2049	
-2.18811	
-2.17438	
-2.18048	
-2.18506	
-2.18658	
-2.19269	
-2.19269	
-2.18811	
-2.19879	
-2.20032	
-2.19574	
-2.19574	
-2.19421	
-2.19574	
-2.20032	
-2.20032	
-2.20337	
-2.20337	
-2.20032	
-2.18506	
-2.19269	
-2.19116	
-2.18201	
-2.18658	
-2.19421	
-2.19727	
-2.18811	
-2.17743	
-2.18506	
-2.18353	
-2.18811	
-2.19269	
-2.19421	
-2.19116	
-2.19574	
-2.19421	
-2.19421	
-2.18506	
-2.18811	
-2.18811	
-2.18506	
-2.18811	
-2.18811	
-2.19116	
-2.19116	
-2.19727	
-2.19574	
-2.19879	
-2.19574	
-2.19116	
-2.18658	
-2.18811	
-2.18506	
-2.18658	
-2.18506	
-2.18201	
-2.18353	
-2.18353	
-2.18811	
-2.19269	
-2.20032	
-2.20184	
-2.19421	
-2.19879	
-2.20184	
-2.20032	
-2.20032	
-2.21405	
-2.21405	
-2.18811	
-2.16827	
-2.17133	
-2.17438	
-2.17896	
-2.1759	
-2.18048	
-2.19269	
-2.18658	
-2.18658	
-2.19269	
-2.19269	
-2.19269	
-2.18811	
-2.19116	
-2.18353	
-2.1698	
-2.18048	
-2.19116	
-2.19421	
-2.20184	
-2.20337	
-2.2049	
-2.19269	
-2.18506	
-2.19574	
-2.20184	
-2.19879	
-2.18201	
-2.18658	
-2.19269	
-2.19421	
-2.19421	
-2.19574	
-2.17896	
-2.17896	
-2.19116	
-2.19269	
-2.19116	
-2.19116	
-2.20032	
-2.19269	
-2.18353	
-2.18048	
-2.17743	
-2.17743	
-2.1759	
-2.17896	
-2.18201	
-2.18506	
-2.18658	
-2.18658	
-2.19574	
-2.20032	
-2.19879	
-2.19727	
-2.20032	
-2.19574	
-2.17896	
-2.18658	
-2.18506	
-2.18353	
-2.18506	
-2.18201	
-2.18506	
-2.19116	
-2.18506	
-2.17896	
-2.18201	
-2.18811	
-2.19421	
-2.20032	
-2.19574	
-2.17896	
-2.18048	
-2.19727	
-2.19879	
-2.19269	
-2.18506	
-2.18658	
-2.18811	
-2.18811	
-2.18658	
-2.18811	
-2.18353	
-2.18506	
-2.18658	
-2.18353	
-2.19116	
-2.19574	
-2.20032	
-2.20795	
-2.20337	
-2.19879	
-2.18811	
-2.18658	
-2.19269	
-2.19879	
-2.20337	
-2.19116	
-2.17743	
-2.18353	
-2.18353	
-2.18658	
-2.18658	
-2.18811	
-2.18506	
-2.17896	
-2.19116	
-2.18658	
-2.18658	
-2.18353	
-2.18353	
-2.18506	
-2.18811	
-2.19574	
-2.19727	
-2.19727	
-2.19269	
-2.18658	
-2.18811	
-2.18811	
-2.18811	
-2.18658	
-2.19116	
-2.18353	
-2.18048	
-2.18353	
-2.18506	
-2.18048	
-2.1759	
-2.18811	
-2.20032	
-2.20337	
-2.20032	
-2.19574	
-2.18506	
-2.18658	
-2.19116	
-2.19574	
-2.19574	
-2.19574	
-2.17743	
-2.1759	
-2.18353	
-2.17896	
-2.17896	
-2.18201	
-2.19727	
-2.21252	
-2.21863	
-2.20947	
-2.17896	
-2.18048	
-2.18811	
-2.18201	
-2.18506	
-2.19269	
-2.19116	
-2.19269	
-2.18811	
-2.19269	
-2.18811	
-2.18506	
-2.18811	
-2.19421	
-2.19574	
-2.19269	
-2.19421	
-2.19421	
-2.19269	
-2.19574	
-2.19116	
-2.19421	
-2.19879	
-2.19879	
-2.19421	
-2.19269	
-2.19421	
-2.19727	
-2.20032	
-2.19116	
-2.17896	
-2.18811	
-2.19269	
-2.19574	
-2.19116	
-2.19269	
-2.18811	
-2.18811	
-2.18506	
-2.18658	
-2.19269	
-2.18506	
-2.18201	
-2.18353	
-2.18658	
-2.19116	
-2.19421	
-2.20337	
-2.211	
-2.20947	
-2.18658	
-2.18048	
-2.18048	
-2.18506	
-2.19421	
-2.19269	
-2.19574	
-2.19727	
-2.19879	
-2.19269	
-2.19116	
-2.19879	
-2.20337	
-2.19574	
-2.19574	
-2.18506	
-2.18201	
-2.18506	
-2.18048	
-2.19421	
-2.19879	
-2.20184	
-2.20795	
-2.211	
-2.20032	
-2.18811	
-2.18506	
-2.19269	
-2.19421	
-2.19421	
-2.19116	
-2.19269	
-2.18658	
-2.18658	
-2.18506	
-2.19421	
-2.20337	
-2.20032	
-2.18048	
-2.18353	
-2.19116	
-2.18658	
-2.19727	
-2.20032	
-2.19116	
-2.18353	
-2.18048	
-2.18048	
-2.19269	
-2.19116	
-2.18811	
-2.18506	
-2.18506	
-2.18658	
-2.18811	
-2.18811	
-2.19269	
-2.19421	
-2.19269	
-2.19116	
-2.19421	
-2.19574	
-2.18811	
-2.20337	
-2.19727	
-2.18201	
-2.18353	
-2.18048	
-2.19116	
-2.18811	
-2.18811	
-2.19116	
-2.18811	
-2.19116	
-2.19116	
-2.18048	
-2.18201	
-2.18201	
-2.18506	
-2.18353	
-2.19116	
-2.18811	
-2.19269	
-2.19116	
-2.19116	
-2.19421	
-2.19269	
-2.20184	
-2.211	
-2.20642	
-2.19879	
-2.17896	
-2.18353	
-2.18506	
-2.19116	
-2.19574	
-2.17743	
-2.17438	
-2.18506	
-2.18811	
-2.19116	
-2.18811	
-2.18658	
-2.19116	
-2.19269	
-2.19269	
-2.18658	
-2.19269	
-2.19269	
-2.18658	
-2.18811	
-2.20032	
-2.20337	
-2.20642	
-2.2049	
-2.211	
-2.2049	
-2.17743	
-2.1698	
-2.18048	
-2.18506	
-2.18658	
-2.19116	
-2.19116	
-2.19116	
-2.19421	
-2.19421	
-2.17285	
-2.17285	
-2.18201	
-2.18811	
-2.19269	
-2.18658	
-2.19269	
-2.19116	
-2.19574	
-2.19727	
-2.19879	
-2.20032	
-2.19421	
-2.19269	
-2.18811	
-2.18506	
-2.19116	
-2.19421	
-2.19421	
-2.20032	
-2.20337	
-2.20184	
-2.19574	
-2.17743	
-2.17743	
-2.18506	
-2.18353	
-2.18506	
-2.19421	
-2.19421	
-2.19269	
-2.19574	
-2.20947	
-2.20337	
-2.20032	
-2.18353	
-2.18506	
-2.19269	
-2.18811	
-2.19421	
-2.19421	
-2.19421	
-2.19421	
-2.19269	
-2.20032	
-2.20184	
-2.18506	
-2.18201	
-2.18811	
-2.19116	
-2.19574	
-2.19727	
-2.19727	
-2.2049	
-2.18658	
-2.18811	
-2.19727	
-2.20184	
-2.2049	
-2.20032	
-2.17896	
-2.18353	
-2.19574	
-2.20032	
-2.2049	
-2.20947	
-2.20642	
-2.18811	
-2.18048	
-2.19269	
-2.19269	
-2.20032	
-2.19879	
-2.19421	
-2.19269	
-2.19574	
-2.20032	
-2.19727	
-2.19116	
-2.19574	
-2.19727	
-2.19727	
-2.19574	
-2.19421	
-2.19269	
-2.19421	
-2.19727	
-2.19269	
-2.19421	
-2.19269	
-2.18658	
-2.19574	
-2.18811	
-2.18658	
-2.19116	
-2.18658	
-2.19116	
-2.19727	
-2.2049	
-2.211	
-2.21405	
-2.20184	
-2.18353	
-2.18506	
-2.20032	
-2.2049	
-2.19727	
-2.19574	
-2.19116	
-2.19574	
-2.19727	
-2.19879	
-2.19879	
-2.19727	
-2.19421	
-2.19421	
-2.19421	
-2.19727	
-2.19879	
-2.20032	
-2.2049	
-2.211	
-2.21252	
-2.20337	
-2.17133	
-2.17896	
-2.18811	
-2.19116	
-2.20184	
-2.19574	
-2.19727	
-2.18811	
-2.18811	
-2.18811	
-2.19421	
-2.19421	
-2.211	
-2.20947	
-2.20947	
-2.2049	
-2.19574	
-2.18201	
-2.17743	
-2.18201	
-2.19421	
-2.19116	
-2.19269	
-2.19421	
-2.20184	
-2.20947	
-2.21252	
-2.19574	
-2.18506	
-2.19574	
-2.19574	
-2.18048	
-2.18201	
-2.18201	
-2.18506	
-2.19116	
-2.19727	
-2.20184	
-2.211	
-2.20947	
-2.20337	
-2.20184	
-2.19727	
-2.19727	
-2.19574	
-2.20032	
-2.20032	
-2.20032	
-2.20032	
-2.19574	
-2.19269	
-2.19269	
-2.19574	
-2.19574	
-2.20642	
-2.20337	
-2.19879	
-2.19116	
-2.17285	
-2.18048	
-2.19269	
-2.20184	
-2.20184	
-2.20184	
-2.20032	
-2.20337	
-2.20337	
-2.20184	
-2.18353	
-2.19116	
-2.19421	
-2.20184	
-2.20337	
-2.19421	
-2.18201	
-2.19269	
-2.18811	
-2.18506	
-2.19269	
-2.19116	
-2.18811	
-2.19879	
-2.19727	
-2.18658	
-2.18811	
-2.19574	
-2.2049	
-2.2049	
-2.20642	
-2.211	
-2.20337	
-2.18811	
-2.19421	
-2.19574	
-2.19879	
-2.19879	
-2.20032	
-2.20337	
-2.2049	
-2.20642	
-2.2049	
-2.19574	
-2.19116	
-2.19269	
-2.19574	
-2.19269	
-2.19116	
-2.18506	
-2.18201	
-2.18353	
-2.19269	
-2.19727	
-2.19727	
-2.2049	
-2.19727	
-2.18506	
-2.19269	
-2.19116	
-2.18201	
-2.19116	
-2.20032	
-2.20184	
-2.20184	
-2.20184	
-2.20184	
-2.2049	
-2.19879	
-2.20337	
-2.211	
-2.20642	
-2.19727	
-2.19574	
-2.19727	
-2.18811	
-2.19421	
-2.19116	
-2.18506	
-2.19574	
-2.20184	
-2.18811	
-2.1759	
-2.18506	
-2.19116	
-2.19421	
-2.19727	
-2.19727	
-2.19879	
-2.20642	
-2.2049	
-2.20032	
-2.19574	
-2.19879	
-2.20337	
-2.20032	
-2.20337	
-2.20032	
-2.19574	
-2.19269	
-2.18811	
-2.19116	
-2.19269	
-2.18658	
-2.19421	
-2.19879	
-2.20337	
-2.21252	
-2.20337	
-2.2049	
-2.19574	
-2.19574	
-2.20032	
-2.20337	
-2.19879	
-2.19879	
-2.19574	
-2.19574	
-2.19269	
-2.19421	
-2.19421	
-2.19421	
-2.19116	
-2.19421	
-2.18658	
-2.19116	
-2.19269	
-2.19574	
-2.19574	
-2.19879	
-2.20184	
-2.20032	
-2.19727	
-2.19421	
-2.19879	
-2.19574	
-2.19421	
-2.20337	
-2.2049	
-2.20947	
-2.20337	
-2.19879	
-2.19574	
-2.19269	
-2.19421	
-2.20337	
-2.211	
-2.21252	
-2.20795	
-2.20795	
-2.19879	
-2.18506	
-2.19116	
-2.19879	
-2.18811	
-2.18811	
-2.18811	
-2.19269	
-2.19574	
-2.19421	
-2.18811	
-2.19269	
-2.19574	
-2.19421	
-2.19574	
-2.19574	
-2.19269	
-2.19421	
-2.19421	
-2.19574	
-2.19574	
-2.20184	
-2.20032	
-2.17743	
-2.17133	
-2.17896	
-2.18506	
-2.19116	
-2.19574	
-2.19879	
-2.20947	
-2.2049	
-2.20184	
-2.19879	
-2.19574	
-2.19421	
-2.19727	
-2.19879	
-2.20337	
-2.2049	
-2.20184	
-2.20184	
-2.19574	
-2.18658	
-2.18506	
-2.19421	
-2.19574	
-2.19574	
-2.19879	
-2.20184	
-2.19879	
-2.2049	
-2.211	
-2.20337	
-2.21558	
-2.20337	
-2.20184	
-2.20184	
-2.19727	
-2.18506	
-2.18506	
-2.19116	
-2.18811	
-2.19269	
-2.19574	
-2.19727	
-2.19879	
-2.20032	
-2.19879	
-2.20032	
-2.19574	
-2.19574	
-2.19421	
-2.19727	
-2.19727	
-2.19879	
-2.19879	
-2.19269	
-2.19727	
-2.2049	
-2.211	
-2.19574	
-2.1759	
-2.18658	
-2.19879	
-2.18811	
-2.19269	
-2.20032	
-2.20337	
-2.19421	
-2.17743	
-2.18658	
-2.19269	
-2.19269	
-2.19421	
-2.19574	
-2.19727	
-2.20032	
-2.19727	
-2.19421	
-2.19574	
-2.19269	
-2.19574	
-2.19574	
-2.19727	
-2.20032	
-2.20032	
-2.20337	
-2.19727	
-2.18811	
-2.19116	
-2.19421	
-2.19727	
-2.20032	
-2.19879	
-2.19727	
-2.19421	
-2.19727	
-2.19727	
-2.18658	
-2.17285	
-2.17285	
-2.1759	
-2.18353	
-2.18506	
-2.19421	
-2.2049	
-2.211	
-2.21252	
-2.21252	
-2.20642	
-2.211	
-2.21558	
-2.2049	
-2.20184	
-2.20642	
-2.19879	
-2.2049	
-2.19727	
-2.20337	
-2.20184	
-2.20032	
-2.20184	
-2.20795	
-2.19879	
-2.19269	
-2.20032	
-2.20337	
-2.2049	
-2.20032	
-2.20337	
-2.19879	
-2.19879	
-2.20795	
-2.21252	
-2.21558	
-2.19879	
-2.19421	
-2.17285	
-2.17438	
-2.18353	
-2.19116	
-2.19574	
-2.19879	
-2.20032	
-2.2049	
-2.2049	
-2.20642	
-2.20642	
-2.211	
-2.21252	
-2.20032	
-2.18658	
-2.18811	
-2.19727	
-2.19879	
-2.19879	
-2.20337	
-2.211	
-2.20032	
-2.20795	
-2.211	
-2.20795	
-2.19727	
-2.18658	
-2.18811	
-2.19421	
-2.19727	
-2.19879	
-2.19879	
-2.19727	
-2.20032	
-2.2049	
-2.20642	
-2.19574	
-2.19421	
-2.20032	
-2.20032	
-2.20184	
-2.20184	
-2.20337	
-2.20642	
-2.20032	
-2.20032	
-2.20032	
-2.20032	
-2.19727	
-2.19574	
-2.19421	
-2.19421	
-2.19421	
-2.20032	
-2.20795	
-2.20642	
-2.20947	
-2.20337	
-2.20795	
-2.2049	
-2.20947	
-2.20642	
-2.20337	
-2.20032	
-2.20337	
-2.19727	
-2.19421	
-2.19269	
-2.19421	
-2.19269	
-2.20032	
-2.20947	
-2.20795	
-2.211	
-2.18506	
-2.19879	
-2.21252	
-2.211	
-2.21405	
-2.21558	
-2.211	
-2.19727	
-2.19269	
-2.19574	
-2.19879	
-2.19879	
-2.19879	
-2.20032	
-2.20642	
-2.2049	
-2.20795	
-2.2049	
-2.20642	
-2.211	
-2.19879	
-2.19879	
-2.20795	
-2.18506	
-2.17438	
-2.18506	
-2.18811	
-2.19727	
-2.20032	
-2.19574	
-2.2049	
-2.21558	
-2.20642	
-2.2049	
-2.20947	
-2.20642	
-2.2049	
-2.211	
-2.20947	
-2.2049	
-2.2049	
-2.20184	
-2.20184	
-2.20642	
-2.20337	
-2.20337	
-2.2049	
-2.20642	
-2.20642	
-2.20947	
-2.20642	
-2.20184	
-2.20337	
-2.20184	
-2.2049	
-2.20337	
-2.19879	
-2.20032	
-2.19574	
-2.19421	
-2.19421	
-2.19269	
-2.19574	
-2.2049	
-2.20947	
-2.21558	
-2.21558	
-2.211	
-2.20947	
-2.20337	
-2.20032	
-2.20032	
-2.20337	
-2.20337	
-2.20337	
-2.2049	
-2.21252	
-2.211	
-2.19727	
-2.19727	
-2.20032	
-2.20795	
-2.20947	
-2.20795	
-2.20184	
-2.20184	
-2.19879	
-2.20032	
-2.20642	
-2.20947	
-2.20947	
-2.20795	
-2.20184	
-2.19421	
-2.19421	
-2.19269	
-2.19574	
-2.20337	
-2.2049	
-2.20642	
-2.20032	
-2.20184	
-2.2049	
-2.19574	
-2.20032	
-2.21405	
-2.2049	
-2.211	
-2.21558	
-2.23083	
-2.24152	
-2.22626	
-2.17743	
-2.18048	
-2.18353	
-2.19116	
-2.19421	
-2.18811	
-2.19269	
-2.19879	
-2.20184	
-2.2049	
-2.2171	
-2.21405	
-2.19421	
-2.18658	
-2.19269	
-2.19421	
-2.18811	
-2.19727	
-2.2049	
-2.20947	
-2.20947	
-2.20795	
-2.20337	
-2.2049	
-2.211	
-2.21252	
-2.21405	
-2.21405	
-2.21405	
-2.21558	
-2.21252	
-2.20947	
-2.20947	
-2.20642	
-2.20947	
-2.211	
-2.21252	
-2.20947	
-2.20642	
-2.20032	
-2.20184	
-2.20642	
-2.20184	
-2.20642	
-2.20947	
-2.21405	
-2.211	
-2.19727	
-2.18048	
-2.18811	
-2.20032	
-2.19421	
-2.19727	
-2.20184	
-2.20032	
-2.19727	
-2.19879	
-2.20947	
-2.21405	
-2.2171	
-2.21558	
-2.22015	
-2.21405	
-2.20642	
-2.19269	
-2.19879	
-2.20337	
-2.20032	
-2.19879	
-2.19879	
-2.20032	
-2.19727	
-2.19727	
-2.20032	
-2.20337	
-2.20032	
-2.20795	
-2.20947	
-2.20337	
-2.20642	
-2.20184	
-2.20642	
-2.20947	
-2.20947	
-2.20184	
-2.18811	
-2.20184	
-2.2049	
-2.20337	
-2.20947	
-2.21863	
-2.2171	
-2.20947	
-2.20184	
-2.20642	
-2.21558	
-2.20642	
-2.19269	
-2.19879	
-2.20947	
-2.2049	
-2.18811	
-2.19727	
-2.19574	
-2.19421	
-2.19727	
-2.20032	
-2.20184	
-2.2049	
-2.21405	
-2.21558	
-2.2171	
-2.21405	
-2.19421	
-2.19269	
-2.19727	
-2.20032	
-2.2049	
-2.20184	
-2.20337	
-2.20184	
-2.20032	
-2.20032	
-2.20032	
-2.20184	
-2.2049	
-2.20184	
-2.19727	
-2.2049	
-2.20337	
-2.19879	
-2.19727	
-2.2049	
-2.211	
-2.22015	
-2.2171	
-2.21252	
-2.20032	
-2.20032	
-2.20337	
-2.20032	
-2.20184	
-2.20184	
-2.2049	
-2.20184	
-2.20947	
-2.21252	
-2.211	
-2.20642	
-2.20642	
-2.20642	
-2.211	
-2.20795	
-2.20947	
-2.20947	
-2.20642	
-2.20337	
-2.19879	
-2.20032	
-2.19421	
-2.19727	
-2.20032	
-2.20947	
-2.21863	
-2.22015	
-2.22321	
-2.21863	
-2.20642	
-2.20032	
-2.20337	
-2.2049	
-2.2049	
-2.20795	
-2.2049	
-2.20795	
-2.20642	
-2.20947	
-2.22015	
-2.20947	
-2.20184	
-2.2049	
-2.20947	
-2.20795	
-2.20032	
-2.20337	
-2.20947	
-2.20795	
-2.20795	
-2.2049	
-2.20795	
-2.19879	
-2.19727	
-2.19727	
-2.20337	
-2.2049	
-2.21252	
-2.22015	
-2.20947	
-2.20642	
-2.21405	
-2.20642	
-2.20032	
-2.18658	
-2.18658	
-2.20032	
-2.20032	
-2.2049	
-2.20184	
-2.20184	
-2.19727	
-2.20184	
-2.20337	
-2.19727	
-2.19727	
-2.19269	
-2.19727	
-2.20032	
-2.19727	
-2.20184	
-2.21863	
-2.21405	
-2.20947	
-2.21558	
-2.22321	
-2.2171	
-2.21405	
-2.21405	
-2.20795	
-2.20947	
-2.211	
-2.21252	
-2.211	
-2.20795	
-2.20795	
-2.21252	
-2.21252	
-2.20795	
-2.20337	
-2.19879	
-2.20032	
-2.20337	
-2.20184	
-2.2049	
-2.20947	
-2.211	
-2.20947	
-2.20642	
-2.20795	
-2.19574	
-2.19727	
-2.2049	
-2.21405	
-2.21252	
-2.22015	
-2.23083	
-2.21405	
-2.19574	
-2.20337	
-2.20642	
-2.20795	
-2.20947	
-2.20795	
-2.20947	
-2.20642	
-2.2049	
-2.20642	
-2.20795	
-2.20947	
-2.211	
-2.20947	
-2.21252	
-2.20795	
-2.20337	
-2.20795	
-2.20337	
-2.20184	
-2.20337	
-2.20795	
-2.20642	
-2.20795	
-2.20032	
-2.19727	
-2.18811	
-2.18353	
-2.19269	
-2.19727	
-2.20795	
-2.2049	
-2.20337	
-2.20642	
-2.21252	
-2.21405	
-2.20184	
-2.20184	
-2.20184	
-2.20642	
-2.2049	
-2.20184	
-2.20642	
-2.211	
-2.21558	
-2.21405	
-2.21252	
-2.21252	
-2.2171	
-2.20642	
-2.19727	
-2.19879	
-2.20642	
-2.20184	
-2.19421	
-2.19421	
-2.20032	
-2.20642	
-2.20795	
-2.211	
-2.20795	
-2.20032	
-2.19727	
-2.20337	
-2.20795	
-2.2049	
-2.20184	
-2.2049	
-2.2049	
-2.20337	
-2.20947	
-2.2049	
-2.19879	
-2.20642	
-2.20642	
-2.2049	
-2.20642	
-2.20947	
-2.21558	
-2.211	
-2.20032	
-2.2049	
-2.20642	
-2.20337	
-2.20032	
-2.2049	
-2.20795	
-2.21252	
-2.211	
-2.20795	
-2.2049	
-2.19269	
-2.19574	
-2.20795	
-2.19727	
-2.20184	
-2.2049	
-2.2049	
-2.20337	
-2.2049	
-2.20184	
-2.20337	
-2.20337	
-2.2049	
-2.20337	
-2.2049	
-2.20642	
-2.21405	
-2.21558	
-2.21558	
-2.19879	
-2.20032	
-2.20337	
-2.20184	
-2.19421	
-2.20032	
-2.20032	
-2.20032	
-2.20184	
-2.20642	
-2.21252	
-2.2171	
-2.20947	
-2.20184	
-2.19574	
-2.20337	
-2.19574	
-2.19269	
-2.20184	
-2.20947	
-2.211	
-2.211	
-2.2049	
-2.20337	
-2.20184	
-2.20032	
-2.19421	
-2.19421	
-2.19269	
-2.19116	
-2.19574	
-2.19879	
-2.2049	
-2.21405	
-2.23999	
-2.23083	
-2.20642	
-2.19421	
-2.19879	
-2.18506	
-2.18353	
-2.19574	
-2.19727	
-2.20184	
-2.20642	
-2.21405	
-2.211	
-2.20184	
-2.2049	
-2.2049	
-2.2049	
-2.20184	
-2.20337	
-2.20642	
-2.20642	
-2.20947	
-2.20337	
-2.20032	
-2.19879	
-2.19879	
-2.20184	
-2.20337	
-2.20642	
-2.2049	
-2.21558	
-2.21863	
-2.19879	
-2.17743	
-2.19269	
-2.20184	
-2.20184	
-2.19879	
-2.19727	
-2.20032	
-2.20337	
-2.20795	
-2.2049	
-2.20184	
-2.20337	
-2.20184	
-2.19727	
-2.19879	
-2.19727	
-2.19574	
-2.20337	
-2.20795	
-2.20947	
-2.20337	
-2.20642	
-2.20795	
-2.21558	
-2.21252	
-2.211	
-2.19421	
-2.19574	
-2.19574	
-2.2049	
-2.20642	
-2.20337	
-2.19421	
-2.20337	
-2.20642	
-2.21558	
-2.21558	
-2.20642	
-2.19727	
-2.19879	
-2.20032	
-2.2049	
-2.20642	
-2.20032	
-2.19879	
-2.18506	
-2.19116	
-2.19269	
-2.19727	
-2.2049	
-2.20032	
-2.20032	
-2.19879	
-2.2049	
-2.20947	
-2.21405	
-2.21558	
-2.20337	
-2.19269	
-2.19727	
-2.2049	
-2.20795	
-2.21405	
-2.21863	
-2.2171	
-2.20032	
-2.18811	
-2.19574	
-2.19879	
-2.19574	
-2.20032	
-2.20795	
-2.20642	
-2.20795	
-2.20947	
-2.20642	
-2.19574	
-2.20184	
-2.20795	
-2.20795	
-2.20642	
-2.20184	
-2.18658	
-2.19421	
-2.20184	
-2.2049	
-2.20947	
-2.20642	
-2.20642	
-2.2049	
-2.2049	
-2.20642	
-2.20184	
-2.20337	
-2.2049	
-2.20032	
-2.20032	
-2.2049	
-2.20337	
-2.2049	
-2.20795	
-2.21558	
-2.21863	
-2.2171	
-2.2171	
-2.21863	
-2.22015	
-2.20337	
-2.19574	
-2.19879	
-2.20337	
-2.20337	
-2.211	
-2.20795	
-2.20184	
-2.19727	
-2.20337	
-2.211	
-2.211	
-2.21558	
-2.21252	
-2.21252	
-2.21405	
-2.20795	
-2.211	
-2.21405	
-2.21252	
-2.21252	
-2.20795	
-2.20337	
-2.211	
-2.21405	
-2.20795	
-2.20642	
-2.20642	
-2.2049	
-2.20947	
-2.20947	
-2.20947	
-2.21252	
-2.21405	
-2.21405	
-2.21863	
-2.22778	
-2.211	
-2.20795	
-2.20642	
-2.19574	
-2.20032	
-2.2049	
-2.20642	
-2.20032	
-2.20642	
-2.20642	
-2.21252	
-2.22321	
-2.22473	
-2.21863	
-2.20032	
-2.20032	
-2.20795	
-2.20795	
-2.211	
-2.20947	
-2.211	
-2.21558	
-2.22015	
-2.21252	
-2.18811	
-2.19421	
-2.19727	
-2.19574	
-2.20032	
-2.20337	
-2.20795	
-2.20795	
-2.21252	
-2.2171	
-2.2049	
-2.19879	
-2.19879	
-2.20337	
-2.20947	
-2.21558	
-2.22321	
-2.22015	
-2.23389	
-2.23846	
-2.20947	
-2.19574	
-2.20337	
-2.19727	
-2.19879	
-2.19879	
-2.19879	
-2.20337	
-2.20795	
-2.2049	
-2.20184	
-2.20337	
-2.20337	
-2.20642	
-2.211	
-2.20642	
-2.2049	
-2.2049	
-2.2049	
-2.211	
-2.20947	
-2.21405	
-2.21558	
-2.21252	
-2.211	
-2.211	
-2.20795	
-2.20795	
-2.211	
-2.211	
-2.211	
-2.21405	
-2.21252	
-2.21405	
-2.20947	
-2.20337	
-2.20184	
-2.2049	
-2.20947	
-2.21252	
-2.21405	
-2.21405	
-2.2049	
-2.20642	
-2.20947	
-2.20947	
-2.211	
-2.211	
-2.21405	
-2.19421	
-2.19574	
-2.20337	
-2.20337	
-2.2049	
-2.20184	
-2.20337	
-2.20337	
-2.2049	
-2.20642	
-2.20642	
-2.20795	
-2.20795	
-2.20795	
-2.20947	
-2.21252	
-2.20947	
-2.20337	
-2.19727	
-2.20184	
-2.2049	
-2.211	
-2.20947	
-2.20032	
-2.18811	
-2.19879	
-2.20642	
-2.20795	
-2.20032	
-2.20337	
-2.20795	
-2.21252	
-2.21558	
-2.21252	
-2.21863	
-2.22931	
-2.22321	
-2.19269	
-2.19269	
-2.19727	
-2.20032	
-2.20337	
-2.20795	
-2.211	
-2.21405	
-2.20947	
-2.21252	
-2.20795	
-2.20642	
-2.211	
-2.20947	
-2.211	
-2.20795	
-2.20947	
-2.20642	
-2.20795	
-2.20795	
-2.20642	
-2.20795	
-2.20795	
-2.21405	
-2.21252	
-2.20184	
-2.19727	
-2.2049	
-2.20642	
-2.211	
-2.2171	
-2.211	
-2.20947	
-2.21252	
-2.21252	
-2.21252	
-2.22626	
-2.22015	
-2.22015	
-2.21558	
-2.2171	
-2.211	
-2.19116	
-2.18658	
-2.19574	
-2.20337	
-2.20184	
-2.20642	
-2.20795	
-2.2049	
-2.20032	
-2.20337	
-2.20032	
-2.20032	
-2.2049	
-2.20184	
-2.2049	
-2.21405	
-2.20795	
-2.20642	
-2.20947	
-2.20947	
-2.21558	
-2.19116	
-2.18658	
-2.18811	
-2.19727	
-2.19727	
-2.19879	
-2.2049	
-2.20795	
-2.20337	
-2.20947	
-2.2171	
-2.2171	
-2.21558	
-2.21252	
-2.21863	
-2.211	
-2.20795	
-2.211	
-2.20642	
-2.20795	
-2.20337	
-2.20337	
-2.20337	
-2.20337	
-2.20642	
-2.20337	
-2.211	
-2.21863	
-2.21252	
-2.20032	
-2.19879	
-2.21252	
-2.20947	
-2.21252	
-2.21252	
-2.19574	
-2.19116	
-2.19727	
-2.19879	
-2.19879	
-2.20337	
-2.211	
-2.21405	
-2.21863	
-2.23083	
-2.23694	
-2.22626	
-2.20947	
-2.19727	
-2.18811	
-2.20032	
-2.20947	
-2.211	
-2.20337	
-2.19269	
-2.20032	
-2.20337	
-2.20184	
-2.20184	
-2.20642	
-2.20337	
-2.2049	
-2.20795	
-2.211	
-2.20642	
-2.20642	
-2.20642	
-2.20795	
-2.2049	
-2.20795	
-2.211	
-2.21252	
-2.211	
-2.20642	
-2.20642	
-2.2049	
-2.20184	
-2.20184	
-2.20184	
-2.20642	
-2.20795	
-2.20642	
-2.20642	
-2.20795	
-2.20795	
-2.20337	
-2.20642	
-2.211	
-2.21252	
-2.211	
-2.211	
-2.21558	
-2.20032	
-2.20032	
-2.19727	
-2.20032	
-2.20947	
-2.21252	
-2.20642	
-2.20337	
-2.20947	
-2.20947	
-2.20337	
-2.2049	
-2.20642	
-2.20642	
-2.211	
-2.211	
-2.211	
-2.20795	
-2.211	
-2.20795	
-2.21405	
-2.21863	
-2.2171	
-2.21405	
-2.20184	
-2.19727	
-2.19727	
-2.20184	
-2.20184	
-2.20337	
-2.19879	
-2.20184	
-2.2049	
-2.211	
-2.21863	
-2.21558	
-2.20947	
-2.21405	
-2.21558	
-2.20184	
-2.19574	
-2.2049	
-2.20947	
-2.21252	
-2.2049	
-2.20337	
-2.20642	
-2.20795	
-2.2049	
-2.2049	
-2.20642	
-2.211	
-2.20795	
-2.20947	
-2.2049	
-2.20642	
-2.2049	
-2.211	
-2.20947	
-2.20795	
-2.20947	
-2.21252	
-2.20795	
-2.20947	
-2.20947	
-2.22015	
-2.2171	
-2.211	
-2.211	
-2.211	
-2.211	
-2.20795	
-2.211	
-2.211	
-2.21252	
-2.21405	
-2.21558	
-2.20795	
-2.211	
-2.21252	
-2.211	
-2.21405	
-2.21405	
-2.21558	
-2.20947	
-2.19879	
-2.20032	
-2.21252	
-2.20947	
-2.2049	
-2.19879	
-2.20184	
-2.2049	
-2.20795	
-2.20947	
-2.211	
-2.20337	
-2.20795	
-2.20947	
-2.20642	
-2.2049	
-2.20337	
-2.20032	
-2.20337	
-2.20642	
-2.20642	
-2.20642	
-2.20947	
-2.2049	
-2.21558	
-2.22015	
-2.211	
-2.20032	
-2.20947	
-2.20642	
-2.19421	
-2.20032	
-2.19879	
-2.20642	
-2.20947	
-2.2049	
-2.20337	
-2.20947	
-2.21558	
-2.2171	
-2.21252	
-2.20184	
-2.19727	
-2.2049	
-2.21252	
-2.20947	
-2.211	
-2.21405	
-2.2171	
-2.211	
-2.21405	
-2.20642	
-2.20795	
-2.211	
-2.21405	
-2.21252	
-2.20795	
-2.20795	
-2.20795	
-2.20947	
-2.21252	
-2.20947	
-2.211	
-2.20795	
-2.20947	
-2.20947	
-2.21252	
-2.20947	
-2.20947	
-2.2049	
-2.20795	
-2.20947	
-2.20947	
-2.20947	
-2.20795	
-2.20642	
-2.20947	
-2.20642	
-2.20642	
-2.21252	
-2.20947	
-2.20947	
-2.21405	
-2.21558	
-2.21863	
-2.21405	
-2.19421	
-2.20032	
-2.21252	
-2.21558	
-2.20947	
-2.20947	
-2.211	
-2.20947	
-2.211	
-2.20795	
-2.20795	
-2.20184	
-2.211	
-2.211	
-2.20947	
-2.211	
-2.20642	
-2.19879	
-2.19879	
-2.2049	
-2.20947	
-2.20947	
-2.20337	
-2.20337	
-2.20337	
-2.2049	
-2.2049	
-2.20795	
-2.22473	
-2.21863	
-2.21405	
-2.19269	
-2.20337	
-2.20795	
-2.2049	
-2.20337	
-2.20795	
-2.20795	
-2.21558	
-2.2171	
-2.21558	
-2.21405	
-2.211	
-2.20947	
-2.211	
-2.21405	
-2.21252	
-2.21252	
-2.211	
-2.21252	
-2.21405	
-2.211	
-2.20642	
-2.21252	
-2.21252	
-2.21405	
-2.211	
-2.21252	
-2.211	
-2.20795	
-2.20947	
-2.211	
-2.21405	
-2.21252	
-2.21252	
-2.21252	
-2.21863	
-2.22015	
-2.21863	
-2.21863	
-2.20795	
-2.19574	
-2.19879	
-2.20184	
-2.20184	
-2.20337	
-2.20642	
-2.20337	
-2.20337	
-2.20795	
-2.20947	
-2.21252	
-2.20795	
-2.211	
-2.20947	
-2.21863	
-2.2171	
-2.211	
-2.19879	
-2.2049	
-2.20795	
-2.211	
-2.20032	
-2.20184	
-2.19879	
-2.19116	
-2.18353	
-2.18658	
-2.19421	
-2.19727	
-2.18811	
-2.16675	
-2.15454	
-2.15302	
-2.14996	
-2.14844	
-2.16064	
-2.16827	
-2.17133	
-2.18048	
-2.19574	
-2.21252	
-2.23389	
-2.24762	
-2.25525	
-2.25372	
-2.25372	
-2.25677	
-2.25372	
-2.24609	
-2.23389	
-2.22626	
-2.22473	
-2.21863	
-2.21863	
-2.22015	
-2.21863	
-2.20337	
-2.19879	
-2.20795	
-2.21863	
-2.20795	
-2.2049	
-2.18353	
-2.17896	
-2.18048	
-2.19421	
-2.20184	
-2.20184	
-2.19879	
-2.20642	
-2.21252	
-2.21558	
-2.22321	
-2.21558	
-2.19727	
-2.19727	
-2.19421	
-2.18811	
-2.18658	
-2.18811	
-2.20032	
-2.21405	
-2.21405	
-2.2049	
-2.17438	
-2.1637	
-2.16217	
-2.16064	
-2.14539	
-2.14539	
-2.15302	
-2.17438	
-2.18353	
-2.19116	
-2.211	
-2.23846	
-2.26135	
-2.26898	
-2.27509	
-2.26288	
-2.2583	
-2.24915	
-2.23694	
-2.23236	
-2.22626	
-2.211	
-2.20795	
-2.20795	
-2.20795	
-2.21252	
-2.21405	
-2.21558	
-2.21863	
-2.21863	
-2.21252	
-2.211	
-2.21252	
-2.21252	
-2.20642	
-2.20795	
-2.20032	
-2.20642	
-2.211	
-2.20642	
-2.211	
-2.20947	
-2.21405	
-2.22321	
-2.20947	
-2.19574	
-2.20184	
-2.211	
-2.21252	
-2.21405	
-2.211	
-2.19421	
-2.19574	
-2.20032	
-2.19879	
-2.20337	
-2.2049	
-2.20642	
-2.20947	
-2.211	
-2.20947	
-2.20032	
-2.20032	
-2.20184	
-2.20642	
-2.20642	
-2.20337	
-2.19879	
-2.19574	
-2.19879	
-2.20337	
-2.2049	
-2.20337	
-2.20642	
-2.211	
-2.20947	
-2.20947	
-2.20642	
-2.211	
-2.20947	
-2.20642	
-2.2049	
-2.20795	
-2.211	
-2.20032	
-2.20032	
-2.20337	
-2.21252	
-2.21558	
-2.211	
-2.19116	
-2.19727	
-2.19727	
-2.19879	
-2.20642	
-2.20642	
-2.211	
-2.2049	
-2.20032	
-2.20032	
-2.20642	
-2.19879	
-2.19727	
-2.19879	
-2.20795	
-2.2171	
-2.211	
-2.20947	
-2.21252	
-2.21863	
-2.22321	
-2.22015	
-2.20642	
-2.20642	
-2.20947	
-2.19879	
-2.19574	
-2.19574	
-2.20337	
-2.20642	
-2.20795	
-2.21405	
-2.21405	
-2.19421	
-2.18811	
-2.20032	
-2.2049	
-2.20642	
-2.20337	
-2.20642	
-2.20184	
-2.20184	
-2.20337	
-2.2049	
-2.20337	
-2.20184	
-2.19879	
-2.20642	
-2.20642	
-2.20795	
-2.20642	
-2.20184	
-2.20337	
-2.20795	
-2.20642	
-2.21252	
-2.20947	
-2.20032	
-2.20032	
-2.20337	
-2.20947	
-2.20947	
-2.20947	
-2.2171	
-2.21863	
-2.22473	
-2.21405	
-2.20032	
-2.2049	
-2.20947	
-2.2049	
-2.20947	
-2.20642	
-2.20032	
-2.20642	
-2.20337	
-2.21252	
-2.20337	
-2.20337	
-2.20947	
-2.20947	
-2.20947	
-2.211	
-2.2049	
-2.2049	
-2.20337	
-2.20642	
-2.2049	
-2.2049	
-2.20947	
-2.20947	
-2.20947	
-2.21252	
-2.21558	
-2.22015	
-2.2171	
-2.20032	
-2.20184	
-2.211	
-2.20642	
-2.2049	
-2.2049	
-2.20795	
-2.2049	
-2.2049	
-2.20642	
-2.211	
-2.22015	
-2.22626	
-2.22626	
-2.21863	
-2.21863	
-2.20795	
-2.19574	
-2.2049	
-2.21252	
-2.20337	
-2.20795	
-2.211	
-2.21252	
-2.19727	
-2.20184	
-2.211	
-2.20642	
-2.20795	
-2.20795	
-2.20795	
-2.20947	
-2.2049	
-2.20795	
-2.20795	
-2.20795	
-2.20642	
-2.20947	
-2.20795	
-2.20795	
-2.20795	
-2.20642	
-2.20642	
-2.20642	
-2.21252	
-2.21252	
-2.21252	
-2.211	
-2.21863	
-2.2171	
-2.211	
-2.21405	
-2.21405	
-2.21405	
-2.21863	
-2.22321	
-2.20947	
-2.20337	
-2.21405	
-2.21558	
-2.21405	
-2.21252	
-2.21558	
-2.21252	
-2.21252	
-2.20947	
-2.20947	
-2.21252	
-2.20642	
-2.21558	
-2.21252	
-2.21558	
-2.20642	
-2.20642	
-2.20795	
-2.21405	
-2.21405	
-2.2171	
-2.21558	
-2.21863	
-2.21252	
-2.21252	
-2.20795	
-2.20947	
-2.211	
-2.21405	
-2.211	
-2.20947	
-2.21405	
-2.211	
-2.20947	
-2.21252	
-2.21405	
-2.21252	
-2.21558	
-2.21558	
-2.21558	
-2.21863	
-2.22015	
-2.21405	
-2.211	
-2.211	
-2.20642	
-2.21252	
-2.21252	
-2.2171	
-2.22778	
-2.22473	
-2.20795	
-2.211	
-2.20795	
-2.21405	
-2.211	
-2.21252	
-2.20032	
-2.20642	
-2.20795	
-2.20795	
-2.20795	
-2.21252	
-2.21405	
-2.20947	
-2.21252	
-2.211	
-2.20337	
-2.20337	
-2.2049	
-2.211	
-2.22473	
-2.23694	
-2.23389	
-2.211	
-2.20184	
-2.2049	
-2.21405	
-2.20642	
-2.20642	
-2.211	
-2.21405	
-2.21252	
-2.211	
-2.20337	
-2.2049	
-2.21405	
-2.20947	
-2.211	
-2.20184	
-2.18048	
-2.17438	
-2.16827	
-2.16675	
-2.17285	
-2.17896	
-2.18353	
-2.19421	
-2.20184	
-2.20947	
-2.21558	
-2.22473	
-2.23389	
-2.23999	
-2.23999	
-2.23999	
-2.23846	
-2.24152	
-2.23236	
-2.23389	
-2.22321	
-2.21863	
-2.22321	
-2.21252	
-2.20795	
-2.20032	
-2.18353	
-2.17438	
-2.16217	
-2.1637	
-2.17438	
-2.18201	
-2.19269	
-2.20795	
-2.22015	
-2.22473	
-2.23083	
-2.22321	
-2.21863	
-2.22778	
-2.22626	
-2.22778	
-2.22931	
-2.22473	
-2.22778	
-2.22473	
-2.2171	
-2.21252	
-2.21558	
-2.21863	
-2.22015	
-2.22778	
-2.23541	
-2.23541	
-2.23083	
-2.22321	
-2.211	
-2.20337	
-2.20947	
-2.20642	
-2.20947	
-2.22626	
-2.22778	
-2.22321	
-2.19727	
-2.20184	
-2.20642	
-2.20795	
-2.211	
-2.21863	
-2.22015	
-2.22015	
-2.21863	
-2.2171	
-2.21405	
-2.211	
-2.21252	
-2.211	
-2.21252	
-2.20337	
-2.20184	
-2.2049	
-2.20795	
-2.20947	
-2.211	
-2.21252	
-2.2171	
-2.21863	
-2.20795	
-2.2049	
-2.2049	
-2.20795	
-2.2049	
-2.20795	
-2.20795	
-2.2171	
-2.21863	
-2.22626	
-2.22473	
-2.20947	
-2.20795	
-2.20795	
-2.20947	
-2.211	
-2.2171	
-2.22321	
-2.21405	
-2.21252	
-2.20947	
-2.20947	
-2.20642	
-2.20795	
-2.20642	
-2.20642	
-2.20337	
-2.20337	
-2.20642	
-2.20184	
-2.20642	
-2.21252	
-2.21558	
-2.21863	
-2.2171	
-2.22321	
-2.23236	
-2.24152	
-2.22778	
-2.18201	
-2.18048	
-2.19879	
-2.20642	
-2.20795	
-2.20642	
-2.21405	
-2.20642	
-2.20642	
-2.20947	
-2.21252	
-2.21558	
-2.20947	
-2.20947	
-2.211	
-2.21558	
-2.22321	
-2.22321	
-2.20947	
-2.19574	
-2.19421	
-2.19727	
-2.20032	
-2.20337	
-2.2049	
-2.20337	
-2.20337	
-2.20337	
-2.21252	
-2.21252	
-2.21558	
-2.2171	
-2.2171	
-2.22321	
-2.21863	
-2.2171	
-2.2171	
-2.22015	
-2.2171	
-2.21863	
-2.2171	
-2.21863	
-2.2171	
-2.211	
-2.20795	
-2.20947	
-2.21252	
-2.22321	
-2.22778	
-2.23083	
-2.22015	
-2.2049	
-2.19421	
-2.19727	
-2.21252	
-2.19879	
-2.19879	
-2.20337	
-2.20642	
-2.21252	
-2.21863	
-2.21863	
-2.20947	
-2.21252	
-2.21252	
-2.21252	
-2.211	
-2.20642	
-2.20947	
-2.211	
-2.211	
-2.211	
-2.20795	
-2.21252	
-2.2171	
-2.22473	
-2.21863	
-2.21558	
-2.21405	
-2.20184	
-2.20947	
-2.21405	
-2.21863	
-2.21558	
-2.20795	
-2.20795	
-2.211	
-2.211	
-2.211	
-2.20337	
-2.20337	
-2.20795	
-2.21252	
-2.22321	
-2.23083	
-2.20795	
-2.19727	
-2.20032	
-2.19574	
-2.19574	
-2.19421	
-2.20184	
-2.2049	
-2.21405	
-2.211	
-2.21405	
-2.20947	
-2.20642	
-2.20795	
-2.20947	
-2.20947	
-2.211	
-2.21405	
-2.21252	
-2.20642	
-2.20947	
-2.20795	
-2.20947	
-2.20795	
-2.20642	
-2.20337	
-2.20642	
-2.20795	
-2.21405	
-2.21405	
-2.20642	
-2.2049	
-2.20947	
-2.21558	
-2.21558	
-2.21863	
-2.21558	
-2.20947	
-2.21252	
-2.2171	
-2.22473	
-2.2171	
-2.19879	
-2.18811	
-2.19574	
-2.20032	
-2.20795	
-2.20947	
-2.2171	
-2.2171	
-2.21863	
-2.21252	
-2.19421	
-2.19421	
-2.19269	
-2.18506	
-2.19421	
-2.19421	
-2.19727	
-2.20642	
-2.20184	
-2.20337	
-2.21405	
-2.21558	
-2.2171	
-2.21405	
-2.21863	
-2.22473	
-2.22015	
-2.22778	
-2.22778	
-2.22015	
-2.2049	
-2.19879	
-2.2049	
-2.19269	
-2.19116	
-2.17285	
-2.16064	
-2.14844	
-2.15454	
-2.15454	
-2.1637	
-2.1637	
-2.1637	
-2.18048	
-2.20337	
-2.21405	
-2.22626	
-2.23541	
-2.23846	
-2.23236	
-2.23694	
-2.23694	
-2.23694	
-2.23999	
-2.23846	
-2.23389	
-2.22626	
-2.22626	
-2.22473	
-2.21863	
-2.2171	
-2.21405	
-2.20795	
-2.20642	
-2.21252	
-2.211	
-2.211	
-2.21252	
-2.21405	
-2.2171	
-2.22015	
-2.2171	
-2.21252	
-2.21405	
-2.21252	
-2.21252	
-2.21405	
-2.22473	
-2.22473	
-2.21252	
-2.19879	
-2.20032	
-2.20337	
-2.2049	
-2.20642	
-2.20642	
-2.20795	
-2.20642	
-2.20795	
-2.20337	
-2.20032	
-2.20032	
-2.19574	
-2.20032	
-2.2049	
-2.20947	
-2.21863	
-2.21558	
-2.20795	
-2.21558	
-2.2171	
-2.20947	
-2.20795	
-2.20947	
-2.211	
-2.21558	
-2.22015	
-2.211	
-2.20947	
-2.2171	
-2.21863	
-2.20795	
-2.19421	
-2.18658	
-2.18506	
-2.19421	
-2.19727	
-2.19879	
-2.19727	
-2.20337	
-2.20337	
-2.20795	
-2.211	
-2.20947	
-2.20337	
-2.19727	
-2.20032	
-2.2171	
-2.211	
-2.21405	
-2.211	
-2.19879	
-2.20642	
-2.20642	
-2.20947	
-2.20947	
-2.20947	
-2.20947	
-2.211	
-2.21252	
-2.21252	
-2.20642	
-2.21252	
-2.21405	
-2.20184	
-2.18811	
-2.19727	
-2.20337	
-2.211	
-2.21558	
-2.211	
-2.21405	
-2.21863	
-2.19879	
-2.20337	
-2.20184	
-2.17896	
-2.17896	
-2.1698	
-2.16217	
-2.1698	
-2.17133	
-2.1698	
-2.16217	
-2.17133	
-2.1759	
-2.18506	
-2.19116	
-2.19879	
-2.22321	
-2.23541	
-2.24915	
-2.24762	
-2.23694	
-2.23541	
-2.23846	
-2.23541	
-2.23083	
-2.22473	
-2.21863	
-2.21405	
-2.211	
-2.211	
-2.21405	
-2.2171	
-2.21558	
-2.21863	
-2.2171	
-2.21405	
-2.20642	
-2.20337	
-2.20184	
-2.20337	
-2.20795	
-2.20795	
-2.21405	
-2.211	
-2.20947	
-2.20642	
-2.211	
-2.20795	
-2.20947	
-2.211	
-2.21405	
-2.20184	
-2.2049	
-2.20032	
-2.20032	
-2.20642	
-2.2049	
-2.21252	
-2.22321	
-2.23083	
-2.20795	
-2.20795	
-2.22015	
-2.22015	
-2.21863	
-2.2049	
-2.18811	
-2.18658	
-2.17896	
-2.15912	
-2.14844	
-2.12708	
-2.10724	
-2.0874	
-2.07214	
-2.05841	
-2.05994	
-2.09808	
-2.13928	
-2.18658	
-2.22931	
-2.26593	
-2.2934	
-2.29797	
-2.30103	
-2.3056	
-2.28577	
-2.26746	
-2.2583	
-2.22931	
-2.19574	
-2.1637	
-2.13318	
-2.07825	
-2.07214	
-2.09198	
-2.11487	
-2.14386	
-2.18353	
-2.21405	
-2.24609	
-2.27509	
-2.29645	
-2.30865	
-2.30713	
-2.3056	
-2.29187	
-2.27966	
-2.26135	
-2.24609	
-2.23846	
-2.22626	
-2.22015	
-2.2171	
-2.21252	
-2.211	
-2.20642	
-2.18811	
-2.17896	
-2.14081	
-2.12708	
-2.11182	
-2.11487	
-2.14081	
-2.15454	
-2.16675	
-2.16827	
-2.18048	
-2.19421	
-2.19269	
-2.20337	
-2.22473	
-2.2171	
-2.22626	
-2.22473	
-2.22473	
-2.25067	
-2.27814	
-2.24304	
-2.18506	
-2.13013	
-2.0874	
-2.05841	
-2.02026	
-2.04468	
-2.08435	
-2.11792	
-2.16827	
-2.22473	
-2.24915	
-2.27814	
-2.27966	
-2.24457	
-2.23083	
-2.24762	
-2.25983	
-2.2644	
-2.28119	
-2.29492	
-2.28271	
-2.24609	
-2.19269	
-2.14996	
-2.13928	
-2.12402	
-2.14081	
-2.16217	
-2.1286	
-2.00348	
-1.89514	
-1.69983	
-1.60828	
-1.59149	
-1.68457	
-1.82648	
-1.96991	
-2.14081	
-2.30408	
-2.42767	
-2.51465	
-2.52533	
-2.46124	
-2.40479	
-2.36816	
-2.32391	
-2.2171	
-2.19727	
-2.18353	
-2.15912	
-2.02789	
-1.84479	
-1.8158	
-1.81274	
-1.89056	
-2.01263	
-2.14539	
-2.26898	
-2.35596	
-2.40479	
-2.45361	
-2.44751	
-2.43988	
-2.44446	
-2.45209	
-2.43683	
-2.37885	
-2.32697	
-2.25525	
-2.16827	
-2.11334	
-2.13623	
-2.20337	
-2.27661	
-2.3407	
-2.36206	
-2.36053	
-2.35901	
-2.35748	
-2.2644	
-2.21863	
-2.19574	
-2.15607	
-2.09808	
-2.04926	
-2.00348	
-1.99738	
-2.01263	
-2.05994	
-2.05688	
-2.0462	
-1.96533	
-1.96228	
-1.95465	
-2.00958	
-2.08893	
-2.18201	
-2.2995	
-2.27966	
-2.20642	
-2.14996	
-2.14691	
-2.16064	
-2.20184	
-2.24457	
-2.31018	
-2.40631	
-2.49329	
-2.52991	
-2.50397	
-2.4704	
-2.40631	
-2.33612	
-2.26746	
-2.04773	
-1.89514	
-1.86005	
-1.87531	
-1.92261	
-2.01111	
-2.11029	
-2.19421	
-2.27814	
-2.20795	
-2.12708	
-1.92719	
-1.85852	
-1.82953	
-1.88141	
-1.97144	
-2.07367	
-2.00958	
-2.04773	
-2.09808	
-1.98975	
-1.96838	
-1.94397	
-1.92719	
-2.04468	
-2.20184	
-2.36053	
-2.52075	
-2.63824	
-2.67029	
-2.6413	
-2.62756	
-2.565	
-2.53448	
-2.5177	
-2.50244	
-2.40479	
-2.35596	
-2.25372	
-1.95465	
-1.79443	
-1.68304	
-1.68915	
-1.78986	
-1.93176	
-2.02637	
-2.16675	
-2.30865	
-2.39258	
-2.45056	
-2.49481	
-2.32697	
-2.0462	
-1.85394	
-1.77307	
-1.73492	
-1.66779	
-1.54724	
-1.63422	
-1.79596	
-1.96838	
-2.15912	
-2.23846	
-2.34985	
-2.49786	
-2.63672	
-2.71301	
-2.71912	
-2.5589	
-2.42767	
-2.20947	
-1.73798	
-1.52893	
-1.55182	
-1.63574	
-1.73645	
-1.9577	
-2.23999	
-2.52686	
-2.74811	
-2.96021	
-3.04718	
-2.93732	
-2.77252	
-2.67639	
-2.57721	
-2.43378	
-2.31171	
-2.2171	
-1.92261	
-1.73645	
-1.55945	
-1.41144	
-1.42212	
-1.56555	
-1.75781	
-2.00195	
-2.23389	
-2.44598	
-2.60925	
-2.63824	
-2.36511	
-2.11792	
-1.98669	
-2.01111	
-1.96533	
-1.87836	
-1.6922	
-1.70135	
-1.80664	
-1.93329	
-1.91345	
-2.01111	
-2.18811	
-2.3407	
-2.49634	
-2.65045	
-2.75726	
-2.78473	
-2.77252	
-2.76184	
-2.771	
-2.67792	
-2.62299	
-2.56805	
-2.43225	
-2.37732	
-2.21558	
-2.01874	
-1.90582	
-1.88904	
-1.86768	
-1.89667	
-1.9516	
-2.04926	
-2.0401	
-2.07214	
-2.0874	
-2.0813	
-2.13165	
-2.22321	
-2.211	
-2.14844	
-2.04468	
-1.66321	
-1.31989	
-1.23138	
-1.24207	
-1.38397	
-1.76239	
-2.16827	
-2.54822	
-2.86102	
-3.08228	
-3.18451	
-3.22418	
-3.15399	
-3.05939	
-2.86713	
-2.58179	
-2.40784	
-2.26898	
-2.13776	
-1.93481	
-1.71204	
-1.47552	
-1.35498	
-1.04218	
-0.927734	
-0.923157	
-1.10474	
-1.48926	
-1.8631	
-2.25677	
-2.54517	
-2.65198	
-2.74048	
-2.84119	
-2.89001	
-2.89307	
-2.81067	
-2.63519	
-2.09045	
-1.62048	
-1.38855	
-1.1261	
-1.03149	
-1.21613	
-1.67084	
-2.14233	
-2.59552	
-2.91595	
-3.14789	
-3.28827	
-3.32336	
-3.27301	
-3.17993	
-3.08685	
-2.95563	
-2.78931	
-2.74506	
-2.70386	
-2.60925	
-2.54364	
-2.40936	
-2.18811	
-2.04468	
-1.84479	
-1.71051	
-1.58386	
-1.44043	
-1.40686	
-1.46179	
-1.60522	
-1.82953	
-2.01263	
-2.14844	
-2.26288	
-2.46429	
-2.6825	
-2.74963	
-2.66266	
-2.56348	
-2.42767	
-2.0462	
-1.8158	
-1.70441	
-1.73645	
-1.71204	
-1.73798	
-1.74255	
-1.94702	
-2.10266	
-2.24915	
-2.32239	
-2.35443	
-2.49786	
-2.61993	
-2.72064	
-2.6413	
-2.55127	
-2.35291	
-2.31171	
-2.26288	
-2.13928	
-1.96991	
-1.9165	
-1.83411	
-1.66779	
-1.58234	
-1.66016	
-1.76544	
-1.84937	
-2.00653	
-1.99127	
-1.7334	
-1.40533	
-1.2207	
-1.30615	
-1.59912	
-2.0752	
-2.59552	
-3.04108	
-3.35541	
-3.40118	
-3.29132	
-3.17078	
-3.02734	
-2.9007	
-2.76184	
-2.56653	
-2.22626	
-1.77612	
-1.17188	
-0.718689	
-0.595093	
-0.770569	
-1.12457	
-1.59149	
-2.07672	
-2.5238	
-2.83966	
-2.99988	
-3.09143	
-3.13568	
-3.1662	
-3.17535	
-3.0365	
-2.948	
-2.81525	
-2.63824	
-2.45361	
-1.72424	
-1.08795	
-0.601196	
-0.538635	
-0.668335	
-1.04065	
-1.48621	
-1.88293	
-2.25067	
-2.56348	
-2.79388	
-3.01056	
-3.20282	
-3.30505	
-3.00446	
-2.67334	
-2.35291	
-2.03247	
-1.58234	
-1.40381	
-1.23291	
-1.3504	
-1.49994	
-1.55334	
-1.55792	
-1.66779	
-1.87073	
-2.14691	
-2.33612	
-2.45514	
-2.50397	
-2.57874	
-2.57416	
-2.58636	
-2.6474	
-2.7771	
-2.70844	
-2.57263	
-2.45209	
-2.39105	
-2.35596	
-2.25677	
-2.1225	
-2.00653	
-1.96228	
-2.005	
-1.98975	
-1.8692	
-1.67389	
-1.5625	
-1.61285	
-1.70898	
-1.88293	
-2.0874	
-2.00653	
-1.98822	
-2.08893	
-2.20337	
-2.4292	
-2.66266	
-2.9129	
-3.13721	
-3.11127	
-3.02582	
-2.99988	
-2.88544	
-2.54364	
-2.29034	
-2.034	
-1.89056	
-1.86462	
-1.94397	
-2.02026	
-2.03857	
-1.94244	
-1.66016	
-1.68304	
-1.7395	
-1.9928	
-2.17285	
-2.30713	
-2.35291	
-2.36969	
-2.33612	
-2.32697	
-2.11945	
-1.97906	
-1.93176	
-1.94244	
-1.84326	
-1.7746	
-1.75781	
-1.72272	
-1.40076	
-1.33667	
-1.37634	
-1.51062	
-1.78986	
-2.05841	
-2.31934	
-2.49329	
-2.70081	
-2.79694	
-2.75726	
-2.65503	
-2.58026	
-2.5177	
-2.45667	
-2.3941	
-2.35138	
-2.33459	
-2.30255	
-2.35443	
-2.46429	
-2.51923	
-2.43988	
-2.31171	
-2.25067	
-2.09656	
-1.96228	
-1.83258	
-1.72119	
-1.6983	
-1.6983	
-1.87073	
-2.11792	
-2.40021	
-2.6535	
-2.75879	
-2.76489	
-2.70081	
-2.50092	
-2.39563	
-2.3407	
-2.31476	
-2.32849	
-2.46582	
-2.43378	
-2.41852	
-2.30255	
-2.16522	
-1.90582	
-1.61285	
-1.26801	
-0.778198	
-0.395203	
-0.12207	
-0.0747681	
-0.485229	
-1.3382	
-2.11792	
-2.82135	
-3.40271	
-3.75519	
-3.8269	
-3.53699	
-3.10516	
-2.56348	
-1.98822	
-1.54266	
-1.36719	
-1.42517	
-1.51672	
-1.66779	
-1.87531	
-2.1225	
-2.44904	
-2.65808	
-2.71912	
-2.78625	
-2.90222	
-2.89612	
-2.76947	
-2.55127	
-2.29797	
-2.03247	
-1.76392	
-1.474	
-1.30768	
-1.37482	
-1.6571	
-1.98517	
-2.2171	
-2.30865	
-2.40326	
-2.35748	
-2.40479	
-2.56653	
-2.52533	
-1.98212	
-1.64185	
-1.38092	
-1.47858	
-1.76849	
-2.1286	
-2.41241	
-2.62451	
-2.87933	
-2.94342	
-2.9541	
-2.96783	
-2.98615	
-3.01056	
-2.73438	
-2.54822	
-2.29645	
-2.20032	
-2.13165	
-1.94855	
-1.83868	
-1.80969	
-1.9104	
-1.98059	
-1.96991	
-1.9516	
-1.85394	
-1.84326	
-2.01721	
-1.98212	
-1.85699	
-1.88751	
-2.07672	
-2.41394	
-2.67029	
-2.62299	
-2.5116	
-2.32544	
-2.28119	
-2.10876	
-1.93939	
-1.80359	
-1.72272	
-1.67236	
-1.58386	
-1.47095	
-1.34888	
-1.44806	
-1.7395	
-2.04315	
-2.18658	
-2.25067	
-2.32544	
-2.5528	
-2.71149	
-2.81677	
-3.00446	
-2.88239	
-2.74506	
-2.56653	
-2.27509	
-1.96991	
-1.83716	
-1.78986	
-1.64337	
-1.46942	
-1.34583	
-1.474	
-1.78528	
-1.98059	
-2.16064	
-2.33002	
-2.23236	
-2.16675	
-2.24609	
-2.28577	
-2.3056	
-2.32086	
-2.36053	
-2.26135	
-2.11029	
-1.92261	
-1.92108	
-2.05994	
-2.18658	
-2.2583	
-2.48566	
-2.5528	
-2.54211	
-2.52533	
-2.6062	
-2.6474	
-2.77252	
-3.1311	
-3.17535	
-2.948	
-2.58942	
-2.17896	
-1.61438	
-1.20239	
-1.15814	
-1.11542	
-1.32904	
-1.5152	
-1.34583	
-1.4267	
-1.61438	
-1.90125	
-2.43378	
-2.73285	
-2.76794	
-2.7359	
-2.77252	
-2.67944	
-2.5528	
-2.4353	
-2.28577	
-1.97601	
-1.90125	
-1.63269	
-1.41296	
-1.31378	
-1.57471	
-1.66016	
-1.69067	
-1.78528	
-1.78375	
-1.84174	
-1.80206	
-1.77307	
-1.89819	
-1.96533	
-1.93787	
-1.98212	
-2.14081	
-2.54669	
-3.06549	
-3.11584	
-3.10364	
-3.01514	
-2.71149	
-2.25372	
-2.02332	
-2.18201	
-2.24304	
-2.55432	
-2.74963	
-2.54364	
-2.31171	
-2.19879	
-2.07214	
-2.19421	
-2.14386	
-2.32086	
-2.35138	
-2.53296	
-2.23236	
-1.85242	
-1.60675	
-1.63727	
-1.70288	
-1.85089	
-2.13165	
-2.12097	
-2.14539	
-2.23389	
-2.99377	
-3.08228	
-2.94647	
-2.99835	
-2.48566	
-1.48621	
-0.563049	
-0.1297	
-0.3479	
-0.523376	
-0.791931	
-1.06354	
-1.3855	
-1.62811	
-1.82495	
-1.95313	
-1.95313	
-2.04773	
-2.16217	
-2.67639	
-2.94037	
-2.87933	
-2.83661	
-2.6825	
-2.32849	
-1.96381	
-1.75171	
-1.65253	
-1.72424	
-1.96075	
-2.3407	
-2.65503	
-3.4729	
-3.50952	
-3.43628	
-3.16162	
-2.78778	
-2.39258	
-2.90222	
-2.88391	
-3.10669	
-3.44391	
-2.96326	
-2.28729	
-1.24512	
-0.341797	
0.205994	
0.088501	
-0.262451	
-0.494385	
-0.85144	
-1.22833	
-1.83411	
-2.25983	
-2.73895	
-3.42102	
-3.82538	
-3.94745	
-3.82996	
-3.30353	
-2.41394	
-1.76239	
-1.15509	
-1.02386	
-0.866699	
-0.790405	
-0.71106	
-1.03302	
-1.51062	
-1.67999	
-1.54114	
-1.51367	
-1.66321	
-1.80054	
-1.88599	
-1.88141	
-1.9928	
-2.14081	
-2.58179	
-2.65198	
-2.93884	
-3.22723	
-3.22723	
-3.36151	
-3.11127	
-2.62451	
-2.13318	
-1.82037	
-1.73645	
-1.83258	
-2.11182	
-2.04163	
-2.38953	
-2.80457	
-2.89459	
-2.74811	
-2.49481	
-2.18201	
-1.77155	
-1.38397	
-1.72272	
-1.95313	
-2.06604	
-2.29187	
-2.52533	
-2.60468	
-2.48871	
-2.5528	
-2.44598	
-2.06757	
-1.6983	
-1.41907	
-1.36108	
-1.61438	
-2.08893	
-2.18658	
-2.22778	
-2.33917	
-2.30103	
-1.91345	
-1.474	
-1.28784	
-1.17798	
-1.22375	
-1.44501	
-1.6449	
-1.75629	
-2.211	
-2.40326	
-2.42157	
-2.35138	
-2.1698	
-1.93787	
-1.72729	
-1.651	
-1.74408	
-1.67542	
-2.20795	
-2.54669	
-2.57874	
-2.54211	
-2.54211	
-2.41699	
-2.43683	
-2.44141	
-2.38495	
-2.16217	
-2.02332	
-2.23694	
-2.07825	
-2.06909	
-1.94397	
-1.81122	
-1.98822	
-2.03857	
-2.01111	
-2.02026	
-2.23083	
-2.34528	
-2.42767	
-2.31476	
-2.13165	
-1.97601	
-1.92108	
-1.97144	
-1.92871	
-1.93329	
-2.10724	
-2.27814	
-2.26593	
-2.28882	
-2.47955	
-2.59094	
-2.5528	
-2.36664	
-2.16675	
-2.01416	
-1.69678	
-1.56097	
-1.41602	
-1.5625	
-2.04468	
-2.23389	
-2.35443	
-2.41547	
-2.54211	
-2.50549	
-2.44446	
-2.36816	
-2.60925	
-3.30353	
-3.5141	
-3.17688	
-2.76947	
-2.32086	
-1.79596	
-1.25885	
-0.59967	
-0.601196	
-1.091	
-1.28326	
-1.50604	
-1.72424	
-1.83563	
-1.89514	
-1.86768	
-1.99738	
-2.07672	
-2.09808	
-2.28882	
-2.55585	
-2.82745	
-3.01971	
-2.89459	
-2.44904	
-2.11487	
-1.64795	
