5.17273	
5.18799	
5.21698	
5.22308	
5.21851	
5.21088	
5.17426	
5.13611	
5.10406	
5.12238	
5.11627	
5.0827	
5.05371	
5.03235	
5.05524	
5.13458	
5.15747	
5.21698	
5.26733	
5.28412	
5.27191	
5.27496	
5.23376	
5.19714	
5.17273	
5.13306	
5.08423	
5.03235	
4.99115	
4.96979	
4.97589	
4.99878	
5.0705	
5.11322	
5.14679	
5.24597	
5.30853	
5.2948	
5.24902	
5.19867	
5.15747	
5.10406	
5.05829	
5.06897	
5.0705	
5.13153	
5.159	
5.18799	
5.19714	
5.17883	
5.14221	
5.11017	
5.1651	
5.19867	
5.27344	
5.36194	
5.45044	
5.43213	
5.36499	
5.3009	
5.27191	
5.2536	
5.20935	
5.16052	
5.08423	
5.03845	
5.01709	
4.9942	
4.98505	
4.98505	
4.99878	
4.9942	
4.98047	
4.96368	
4.98352	
4.98352	
5.0415	
5.06592	
5.13153	
5.32684	
5.48401	
5.47791	
5.44586	
5.33447	
5.22308	
5.15289	
5.09186	
5.04913	
5.0293	
5.01556	
5.04456	
5.03082	
5.05829	
5.13153	
5.19104	
5.23529	
5.22766	
5.2124	
5.18341	
5.15594	
5.16052	
5.15747	
5.13611	
5.14832	
5.15594	
5.13306	
5.13153	
5.14069	
5.18646	
5.31616	
5.46112	
5.50995	
5.45807	
5.39246	
5.34058	
5.35431	
5.40009	
5.42603	
5.513	
5.57709	
5.58624	
5.53436	
5.42603	
5.31921	
5.25818	
5.14832	
5.05829	
4.98047	
4.91333	
4.87518	
4.83704	
4.85382	
4.92859	
5.01556	
5.03998	
5.09491	
5.19714	
5.3299	
5.46265	
5.51453	
5.47485	
5.44739	
5.38635	
5.29175	
5.19257	
5.10406	
5.02472	
5.00488	
5.03082	
4.99115	
4.95453	
4.94232	
4.96521	
4.97589	
4.97742	
5.02167	
5.11475	
5.21088	
5.21698	
5.19257	
5.17426	
5.15747	
5.159	
5.14221	
5.21851	
5.28564	
5.38483	
5.43365	
5.41992	
5.41229	
5.39703	
5.35278	
5.31311	
5.22766	
5.15747	
5.1178	
5.15137	
5.19257	
5.18494	
5.12848	
5.10101	
5.16052	
5.31769	
5.57861	
5.65186	
5.66711	
5.59235	
5.52826	
5.44128	
5.25665	
5.15137	
5.08118	
5.05829	
5.0354	
5.00183	
4.96368	
4.97437	
5.06439	
5.31006	
5.39856	
5.39551	
5.35431	
5.34058	
5.31616	
5.27191	
5.22614	
5.27191	
5.31921	
5.2124	
5.16205	
5.14221	
5.13153	
5.12848	
5.11627	
5.10406	
5.13611	
5.15594	
5.19104	
5.14832	
5.11627	
5.14069	
5.14069	
5.1239	
5.10712	
5.13153	
5.17883	
5.18799	
5.23987	
5.26276	
5.25208	
5.2597	
5.25208	
5.27344	
5.27802	
5.2948	
5.38025	
5.37109	
5.35583	
5.36957	
5.38025	
5.36194	
5.2948	
5.2475	
5.19714	
5.19104	
5.18036	
5.13	
5.09949	
5.18799	
5.20935	
5.19409	
5.15594	
5.12543	
5.12238	
5.10712	
5.07813	
5.01862	
5.02014	
5.0705	
5.19714	
5.31769	
5.45044	
5.49164	
5.43365	
5.39246	
5.33447	
5.2948	
5.26886	
5.24902	
5.20325	
5.13153	
5.13306	
5.12695	
5.11169	
5.1178	
5.15747	
5.17883	
5.18341	
5.22461	
5.22308	
5.21851	
5.22461	
5.40009	
5.42755	
5.39856	
5.336	
5.31158	
5.2597	
5.2475	
5.2124	
5.2063	
5.22461	
5.21851	
5.18036	
5.12543	
5.12848	
5.13306	
5.13458	
5.10406	
5.12695	
5.15289	
5.2124	
5.22766	
5.22461	
5.22308	
5.21088	
5.19562	
5.17883	
5.15442	
5.14221	
5.13916	
5.13306	
5.1239	
5.1178	
5.13153	
5.14832	
5.14069	
5.13306	
5.14832	
5.16205	
5.18188	
5.26886	
5.31464	
5.3299	
5.31464	
5.30548	
5.4306	
5.39856	
5.34821	
5.30396	
5.27802	
5.2597	
5.19104	
5.12848	
5.09949	
5.09491	
5.08118	
5.11627	
5.15594	
5.20935	
5.23376	
5.22461	
5.2124	
5.20935	
5.19104	
5.17731	
5.16052	
5.14984	
5.15442	
5.14526	
5.14221	
5.18799	
5.24597	
5.27802	
5.31006	
5.34363	
5.32227	
5.32532	
5.30701	
5.2536	
5.2063	
5.18646	
5.16205	
5.13	
5.10712	
5.13611	
5.14374	
5.14679	
5.15747	
5.18799	
5.21851	
5.21545	
5.20782	
5.20477	
5.19714	
5.21088	
5.20477	
5.25665	
5.33905	
5.36346	
5.35736	
5.35431	
5.33295	
5.30243	
5.26123	
5.25055	
5.22461	
5.19257	
5.18951	
5.23987	
5.2597	
5.25055	
5.25208	
5.25208	
5.23529	
5.2124	
5.2002	
5.17426	
5.16052	
5.16205	
5.22156	
5.21698	
5.20935	
5.20935	
5.22461	
5.23987	
5.2536	
5.31311	
5.46722	
5.56793	
5.57251	
5.55267	
5.48859	
5.39551	
5.31616	
5.24445	
5.1651	
5.11017	
5.06592	
5.05371	
5.07507	
5.11475	
5.16815	
5.2124	
5.27496	
5.3421	
5.40009	
5.43976	
5.41229	
5.39398	
5.37109	
5.33752	
5.31769	
5.27954	
5.2536	
5.28412	
5.35126	
5.36804	
5.35431	
5.34821	
5.41534	
5.52368	
5.48553	
5.42145	
5.36804	
5.38025	
5.4657	
5.44891	
5.38177	
5.336	
5.32074	
5.27496	
5.20325	
5.17578	
5.15442	
5.14221	
5.15289	
5.15289	
5.15289	
5.16815	
5.20782	
5.2597	
5.40924	
5.47943	
5.49774	
5.49774	
5.48401	
5.45044	
5.40161	
5.33752	
5.28564	
5.22308	
5.19409	
5.17578	
5.1651	
5.18036	
5.18646	
5.2002	
5.26276	
5.38177	
5.5603	
5.75562	
5.9494	
6.00281	
5.90668	
5.77087	
5.6427	
5.513	
5.40161	
5.27649	
5.17426	
5.11475	
5.05676	
5.04913	
5.1712	
5.37567	
5.44891	
5.46722	
5.47028	
5.47638	
5.41382	
5.32379	
5.25665	
5.18799	
5.13916	
5.09949	
5.07965	
5.10406	
5.13458	
5.15747	
5.18341	
5.18188	
5.20325	
5.2063	
5.20935	
5.23834	
5.26276	
5.28259	
5.30396	
5.40009	
5.50995	
5.65033	
5.66406	
5.64423	
5.59387	
5.50995	
5.46875	
5.41534	
5.31921	
5.23987	
5.21088	
5.19867	
5.18341	
5.18188	
5.22156	
5.24139	
5.31311	
5.46722	
5.56641	
5.60303	
5.59692	
5.54504	
5.47485	
5.40924	
5.35583	
5.3009	
5.23682	
5.19409	
5.20782	
5.31158	
5.40771	
5.44128	
5.49622	
5.50232	
5.45654	
5.41534	
5.36041	
5.3772	
5.40771	
5.45959	
5.46417	
5.39703	
5.36957	
5.37109	
5.4245	
5.40771	
5.38635	
5.38025	
5.32684	
5.26733	
5.22919	
5.19867	
5.19104	
5.20477	
5.19257	
5.20477	
5.23682	
5.26276	
5.30701	
5.33142	
5.34515	
5.37415	
5.39856	
5.54504	
5.60608	
5.58777	
5.53894	
5.49316	
5.52368	
5.45044	
5.34973	
5.28564	
5.33905	
5.45654	
5.41229	
5.34668	
5.33295	
5.36041	
5.35278	
5.30396	
5.25513	
5.22156	
5.18799	
5.36499	
5.50995	
5.52673	
5.47943	
5.42908	
5.39551	
5.33905	
5.26276	
5.20782	
5.16663	
5.14069	
5.12848	
5.11627	
5.15137	
5.35126	
5.44586	
5.4245	
5.38635	
5.36194	
5.30243	
5.28107	
5.23682	
5.17883	
5.14832	
5.16205	
5.14374	
5.11627	
5.13153	
5.19867	
5.2597	
5.29785	
5.31158	
5.29785	
5.3009	
5.29022	
5.27496	
5.25513	
5.24597	
5.26276	
5.28259	
5.27802	
5.28564	
5.31921	
5.33905	
5.40619	
5.39856	
5.36194	
5.3299	
5.30243	
5.28107	
5.2597	
5.3421	
5.57251	
5.65948	
5.7373	
5.7785	
5.71442	
5.62439	
5.513	
5.40009	
5.27954	
5.13916	
5.0354	
4.98352	
4.95911	
4.94843	
4.95758	
5.03082	
5.08118	
5.10254	
5.11169	
5.14832	
5.16815	
5.1651	
5.21088	
5.28564	
5.31311	
5.33752	
5.37872	
5.44891	
5.52063	
5.513	
5.52521	
5.45349	
5.37872	
5.37109	
5.35431	
5.33905	
5.30853	
5.27344	
5.21393	
5.17426	
5.16205	
5.17426	
5.17273	
5.17883	
5.28259	
5.29785	
5.27039	
5.24902	
5.23834	
5.23529	
5.21698	
5.19409	
5.18036	
5.21698	
5.3009	
5.32074	
5.31464	
5.3772	
5.40924	
5.38177	
5.38177	
5.35431	
5.29022	
5.22461	
5.16815	
5.14679	
5.11475	
5.13	
5.15137	
5.159	
5.16815	
5.2124	
5.24445	
5.25665	
5.26733	
5.25818	
5.23682	
5.21698	
5.19257	
5.1651	
5.14832	
5.16357	
5.22308	
5.33295	
5.37567	
5.4657	
5.5069	
5.47638	
5.41534	
5.36499	
5.336	
5.30548	
5.24902	
5.19257	
5.17273	
5.14679	
5.17273	
5.22156	
5.33142	
5.44891	
5.47943	
5.48096	
5.43823	
5.40009	
5.35583	
5.31158	
5.27344	
5.22766	
5.19867	
5.18646	
5.17883	
5.18494	
5.18799	
5.19104	
5.2002	
5.21851	
5.31006	
5.40771	
5.42755	
5.42908	
5.43365	
5.48096	
5.53436	
5.49927	
5.4306	
5.40009	
5.40619	
5.41229	
5.38483	
5.34668	
5.30396	
5.23682	
5.18799	
5.15594	
5.18341	
5.18494	
5.21088	
5.22461	
5.2887	
5.29938	
5.32532	
5.38025	
5.44128	
5.42755	
5.37872	
5.31616	
5.22308	
5.26733	
5.32227	
5.36346	
5.38788	
5.43823	
5.49011	
5.49011	
5.44281	
5.40161	
5.35126	
5.29785	
5.24292	
5.17883	
5.15594	
5.13153	
5.10864	
5.0827	
5.08881	
5.11322	
5.16815	
5.25513	
5.3299	
5.32532	
5.31006	
5.3009	
5.27496	
5.2597	
5.34363	
5.45807	
5.47485	
5.42908	
5.42145	
5.44128	
5.39551	
5.33447	
5.2948	
5.26581	
5.21698	
5.18036	
5.23834	
5.25665	
5.2887	
5.33905	
5.35583	
5.33752	
5.30243	
5.29327	
5.336	
5.4245	
5.44586	
5.41687	
5.42145	
5.43518	
5.40924	
5.35126	
5.25208	
5.1712	
5.13153	
5.13153	
5.1712	
5.22156	
5.47028	
5.66711	
5.7373	
5.70984	
5.59387	
5.4657	
5.34973	
5.2948	
5.28717	
5.2597	
5.14221	
5.08118	
5.05066	
5.07813	
5.11322	
5.16052	
5.20782	
5.24597	
5.24597	
5.29022	
5.33142	
5.2948	
5.27039	
5.29022	
5.31006	
5.31769	
5.33905	
5.35126	
5.33447	
5.31311	
5.2887	
5.27802	
5.26581	
5.25208	
5.23834	
5.23071	
5.22156	
5.20935	
5.21393	
5.23376	
5.28412	
5.33295	
5.36194	
5.38483	
5.41382	
5.41992	
5.4718	
5.40314	
5.33447	
5.31921	
5.2887	
5.26276	
5.22461	
5.19867	
5.19257	
5.21088	
5.21393	
5.2063	
5.2063	
5.22461	
5.23071	
5.22156	
5.23071	
5.2475	
5.25208	
5.3009	
5.31158	
5.3009	
5.29938	
5.29938	
5.29022	
5.29175	
5.29175	
5.28107	
5.2597	
5.23682	
5.22308	
5.24902	
5.27802	
5.29785	
5.29785	
5.27954	
5.27191	
5.26123	
5.24902	
5.24597	
5.23376	
5.23376	
5.21698	
5.20935	
5.19867	
5.18951	
5.18646	
5.19104	
5.22461	
5.2536	
5.27191	
5.29785	
5.32684	
5.34058	
5.33905	
5.336	
5.31464	
5.31464	
5.30396	
5.31769	
5.336	
5.34973	
5.34363	
5.35736	
5.35736	
5.34058	
5.28564	
5.28107	
5.31158	
5.37262	
5.3772	
5.34515	
5.33752	
5.33142	
5.34973	
5.33752	
5.32684	
5.336	
5.34363	
5.32074	
5.31769	
5.33752	
5.34821	
5.34973	
5.40619	
5.43671	
5.43823	
5.4306	
5.37872	
5.31006	
5.27039	
5.2887	
5.24292	
5.17883	
5.14374	
5.14679	
5.16357	
5.16663	
5.25208	
5.28107	
5.41687	
5.47028	
5.45654	
5.41382	
5.36957	
5.33447	
5.27802	
5.22156	
5.19104	
5.1651	
5.14679	
5.14374	
5.15289	
5.16052	
5.17883	
5.18951	
5.24292	
5.31921	
5.37109	
5.37567	
5.37109	
5.33142	
5.3009	
5.29785	
5.29175	
5.26733	
5.26123	
5.27344	
5.30243	
5.32227	
5.29938	
5.2887	
5.28412	
5.2887	
5.30853	
5.35736	
5.36957	
5.35736	
5.3772	
5.37262	
5.34058	
5.31006	
5.28717	
5.26886	
5.2536	
5.24597	
5.25208	
5.2536	
5.25513	
5.25818	
5.27649	
5.28107	
5.26276	
5.2597	
5.27344	
5.27802	
5.29327	
5.36346	
5.45349	
5.47791	
5.43671	
5.41534	
5.41992	
5.38788	
5.36346	
5.36041	
5.35278	
5.30548	
5.29785	
5.28259	
5.27039	
5.25208	
5.23682	
5.22614	
5.21698	
5.22156	
5.23376	
5.23071	
5.24445	
5.28564	
5.30701	
5.29022	
5.27039	
5.2475	
5.22308	
5.2063	
5.21088	
5.22156	
5.27344	
5.3299	
5.37872	
5.45197	
5.42908	
5.41687	
5.43518	
5.45044	
5.43976	
5.40771	
5.38025	
5.35736	
5.33295	
5.31311	
5.29022	
5.25818	
5.20325	
5.1712	
5.18341	
5.22766	
5.35736	
5.4245	
5.46417	
5.44891	
5.40619	
5.36652	
5.32379	
5.29785	
5.29785	
5.28259	
5.25513	
5.22919	
5.21851	
5.20935	
5.25818	
5.30243	
5.31158	
5.35278	
5.38025	
5.36804	
5.35278	
5.32532	
5.30396	
5.26733	
5.24292	
5.23834	
5.21698	
5.20477	
5.18951	
5.18799	
5.16357	
5.15289	
5.15594	
5.18188	
5.25818	
5.38483	
5.44586	
5.52368	
5.65643	
5.75714	
5.75409	
5.69611	
5.61066	
5.50079	
5.39246	
5.28717	
5.19714	
5.11932	
5.0415	
4.96979	
4.94537	
5.02014	
5.0705	
5.06287	
5.05829	
5.08728	
5.10712	
5.12085	
5.14832	
5.19409	
5.22003	
5.23529	
5.27496	
5.3009	
5.30243	
5.2887	
5.31158	
5.31311	
5.30243	
5.3009	
5.26276	
5.2475	
5.27496	
5.31311	
5.33752	
5.37109	
5.37567	
5.33295	
5.30396	
5.27802	
5.23834	
5.20477	
5.18646	
5.19409	
5.2124	
5.22003	
5.22614	
5.24445	
5.22614	
5.20477	
5.19104	
5.2063	
5.21545	
5.21545	
5.24445	
5.32074	
5.38025	
5.37567	
5.34668	
5.3421	
5.31464	
5.29938	
5.29785	
5.32684	
5.35126	
5.36194	
5.33905	
5.32379	
5.32227	
5.29175	
5.22308	
5.18188	
5.13611	
5.10406	
5.13611	
5.19104	
5.20782	
5.2063	
5.23376	
5.23834	
5.2475	
5.28259	
5.39856	
5.50385	
5.53894	
5.5069	
5.4657	
5.4306	
5.37872	
5.31769	
5.23834	
5.18646	
5.1651	
5.13611	
5.09949	
5.07813	
5.09491	
5.10101	
5.10254	
5.11627	
5.14221	
5.16052	
5.17578	
5.18341	
5.18799	
5.21088	
5.20935	
5.20477	
5.22461	
5.24292	
5.2475	
5.24292	
5.25055	
5.25818	
5.23376	
5.22614	
5.22919	
5.24597	
5.25208	
5.24597	
5.21698	
5.20477	
5.2002	
5.20477	
5.21393	
5.23071	
5.22308	
5.22003	
5.19867	
5.19867	
5.20477	
5.21698	
5.21698	
5.2063	
5.22766	
5.25055	
5.26581	
5.26581	
5.24597	
5.22766	
5.20325	
5.18341	
5.16663	
5.16052	
5.17883	
5.19104	
5.21545	
5.21088	
5.22003	
5.23682	
5.23682	
5.22614	
5.21545	
5.20782	
5.19867	
5.21088	
5.22461	
5.22308	
5.22766	
5.22003	
5.20477	
5.2063	
5.19562	
5.19867	
5.21088	
5.25208	
5.26733	
5.25513	
5.23071	
5.22003	
5.22766	
5.22461	
5.21698	
5.20325	
5.19867	
5.19104	
5.19104	
5.19257	
5.18951	
5.1651	
5.15747	
5.16815	
5.18951	
5.23529	
5.27649	
5.26276	
5.23834	
5.24139	
5.27496	
5.25513	
5.23834	
5.23987	
5.22461	
5.21088	
5.20782	
5.19257	
5.18951	
5.18646	
5.18341	
5.18951	
5.18799	
5.18188	
5.18188	
5.17273	
5.16815	
5.16663	
5.1712	
5.19409	
5.21393	
5.20935	
5.22919	
5.28107	
5.35583	
5.36804	
5.37262	
5.35278	
5.31616	
5.27039	
5.23834	
5.2124	
5.21851	
5.22919	
5.24139	
5.23682	
5.2124	
5.17426	
5.13916	
5.12695	
5.13153	
5.13153	
5.12238	
5.15289	
5.15137	
5.12543	
5.12543	
5.12543	
5.14679	
5.15289	
5.1651	
5.16205	
5.16205	
5.15747	
5.17426	
5.17731	
5.18188	
5.21088	
5.22919	
5.21393	
5.18188	
5.16357	
5.14984	
5.14526	
5.13458	
5.12848	
5.13	
5.15442	
5.18036	
5.19562	
5.20477	
5.24292	
5.2124	
5.18341	
5.18799	
5.19257	
5.2002	
5.19867	
5.19867	
5.21393	
5.20935	
5.18494	
5.17731	
5.16663	
5.17426	
5.17731	
5.16205	
5.15747	
5.15442	
5.18494	
5.18799	
5.16815	
5.16205	
5.15442	
5.13306	
5.10712	
5.09186	
5.09491	
5.09338	
5.1178	
5.17731	
5.28259	
5.37415	
5.36499	
5.31769	
5.30243	
5.3009	
5.28564	
5.26276	
5.21698	
5.17578	
5.14832	
5.13611	
5.13458	
5.11932	
5.10864	
5.1178	
5.09491	
5.08423	
5.08575	
5.09796	
5.10254	
5.10864	
5.11475	
5.13458	
5.15594	
5.13916	
5.13916	
5.14221	
5.14679	
5.16357	
5.159	
5.15289	
5.15137	
5.15594	
5.14679	
5.15594	
5.1712	
5.1651	
5.16663	
5.16357	
5.1651	
5.16357	
5.15137	
5.15289	
5.15747	
5.15137	
5.13458	
5.12848	
5.12238	
5.12695	
5.1239	
5.14374	
5.13916	
5.11322	
5.09644	
5.09491	
5.13458	
5.20325	
5.18036	
5.159	
5.16815	
5.19257	
5.21698	
5.20782	
5.19104	
5.17883	
5.1651	
5.15594	
5.15289	
5.16052	
5.18188	
5.17578	
5.16357	
5.16357	
5.159	
5.14832	
5.14069	
5.15747	
5.16663	
5.18646	
5.20935	
5.2124	
5.2124	
5.19257	
5.18646	
5.18494	
5.18799	
5.17426	
5.15594	
5.13	
5.12085	
5.13	
5.13	
5.16205	
5.17273	
5.18646	
5.20477	
5.19714	
5.18036	
5.16205	
5.1651	
5.14984	
5.13306	
5.1239	
5.0827	
5.05829	
5.04456	
5.03082	
5.05066	
5.08118	
5.14069	
5.19104	
5.20325	
5.2002	
5.18951	
5.18341	
5.17883	
5.16663	
5.14984	
5.13458	
5.13916	
5.16052	
5.18036	
5.15289	
5.12695	
5.12085	
5.10864	
5.11322	
5.1178	
5.12543	
5.12543	
5.11169	
5.09949	
5.09644	
5.11169	
5.14526	
5.22003	
5.24139	
5.25665	
5.25818	
5.24139	
5.2124	
5.17883	
5.17578	
5.15289	
5.11017	
5.0827	
5.08423	
5.0766	
5.0705	
5.06439	
5.06287	
5.06744	
5.07202	
5.07813	
5.08118	
5.09033	
5.09338	
5.09644	
5.11169	
5.11475	
5.08575	
5.06287	
5.05371	
5.08118	
5.10864	
5.11475	
5.10864	
5.14832	
5.1712	
5.1712	
5.1651	
5.15137	
5.13306	
5.1178	
5.11017	
5.09491	
5.09796	
5.11169	
5.12238	
5.10406	
5.09644	
5.10864	
5.14221	
5.14679	
5.13916	
5.12695	
5.1178	
5.1178	
5.11169	
5.09033	
5.06592	
5.05676	
5.08118	
5.09338	
5.1178	
5.14679	
5.13611	
5.13306	
5.13	
5.1178	
5.10101	
5.09949	
5.11322	
5.10254	
5.09796	
5.09338	
5.10712	
5.13306	
5.13	
5.12695	
5.13	
5.12238	
5.10406	
5.09949	
5.09949	
5.09186	
5.08881	
5.09491	
5.10712	
5.09033	
5.10254	
5.08423	
5.08575	
5.09644	
5.07202	
5.04761	
5.04456	
5.07202	
5.09949	
5.10712	
5.09796	
5.09491	
5.08728	
5.0827	
5.09033	
5.08728	
5.0705	
5.05524	
5.06439	
5.09644	
5.11475	
5.15442	
5.16205	
5.14374	
5.13611	
5.12848	
5.13	
5.12848	
5.13	
5.12238	
5.13153	
5.11322	
5.09033	
5.06744	
5.04913	
5.03387	
5.04608	
5.07813	
5.06744	
5.05066	
5.0415	
5.05981	
5.09644	
5.08575	
5.08423	
5.07202	
5.08728	
5.09796	
5.10101	
5.09033	
5.0827	
5.07813	
5.0766	
5.08881	
5.09949	
5.09186	
5.0827	
5.0705	
5.04913	
5.03998	
5.03387	
5.0293	
5.0354	
5.05371	
5.05066	
5.05066	
5.03998	
5.03998	
5.05676	
5.0827	
5.10101	
5.08728	
5.07202	
5.05829	
5.03235	
5.02472	
5.03387	
5.05981	
5.11017	
5.13	
5.11017	
5.10406	
5.08575	
5.07813	
5.0705	
5.06134	
5.05219	
5.05524	
5.05371	
5.05371	
5.0415	
5.06592	
5.09186	
5.09949	
5.10864	
5.10254	
5.11475	
5.12085	
5.10864	
5.11017	
5.10101	
5.07813	
5.06439	
5.05219	
5.03235	
5.02625	
5.03998	
5.08728	
5.11017	
5.09796	
5.06744	
5.04761	
5.05829	
5.06287	
5.08118	
5.08575	
5.06897	
5.07202	
5.07507	
5.0705	
5.0827	
5.07507	
5.07813	
5.07965	
5.10101	
5.08575	
5.0705	
5.10406	
5.1178	
5.0827	
5.04761	
5.05524	
5.03082	
5.00641	
4.98505	
4.99115	
5.00793	
4.99268	
4.97589	
4.98962	
5.01404	
5.09186	
5.16815	
5.20477	
5.2475	
5.27649	
5.26123	
5.21851	
5.18341	
5.14679	
5.10712	
5.0766	
5.03693	
4.99725	
4.94537	
4.90417	
4.88892	
4.91943	
4.93469	
4.95453	
4.97589	
4.98657	
5.00031	
5.01251	
5.03693	
5.03998	
5.02625	
5.01709	
5.00793	
5.02014	
5.01251	
5.00183	
5.00641	
5.03693	
5.05676	
5.04761	
5.02167	
5.02014	
5.00946	
5.00641	
5.02014	
5.03998	
5.07507	
5.09949	
5.09491	
5.06287	
5.03998	
5.03998	
5.03235	
5.01709	
5.00336	
4.9881	
4.96979	
4.95911	
4.97742	
4.98962	
5.10864	
5.19409	
5.23987	
5.26123	
5.25665	
5.21851	
5.16357	
5.11017	
5.06744	
5.02625	
4.98199	
4.93317	
4.91791	
4.90265	
4.87366	
4.84467	
4.83246	
4.85687	
4.92096	
4.92554	
4.93011	
4.98962	
5.08881	
5.12848	
5.16357	
5.17273	
5.18341	
5.16357	
5.12848	
5.09644	
5.06134	
5.03387	
5.00488	
4.99878	
4.96521	
4.92401	
4.89655	
4.89349	
4.89807	
4.9057	
4.91333	
4.93317	
5.00183	
5.05219	
5.0354	
5.03387	
5.00641	
4.98047	
4.97131	
4.95148	
4.94537	
4.94385	
4.93164	
4.91943	
4.92554	
4.93927	
4.95148	
4.98505	
5.05981	
5.19714	
5.32684	
5.29938	
5.29327	
5.2475	
5.2002	
5.15137	
5.08881	
5.00946	
4.96826	
4.91791	
4.88892	
4.87671	
4.85992	
4.84009	
4.84467	
4.86908	
4.96674	
5.13306	
5.19409	
5.20477	
5.18188	
5.15289	
5.10101	
5.04456	
5.03082	
5.03235	
4.94995	
4.88892	
4.83398	
4.79431	
4.76379	
4.75311	
4.77142	
4.83551	
4.92706	
4.99573	
5.02777	
5.07813	
5.12085	
5.13458	
5.10712	
5.05829	
5.04456	
5.02167	
4.97589	
4.93927	
4.90265	
4.85992	
4.86298	
4.89655	
4.94995	
4.96674	
5.0354	
5.12085	
5.25818	
5.27191	
5.21698	
5.13611	
5.05981	
4.99573	
4.96368	
4.92249	
4.88739	
4.84009	
4.79431	
4.83551	
4.89807	
5.02014	
5.15442	
5.28564	
5.37109	
5.38177	
5.34363	
5.26276	
5.18494	
5.09491	
5.00488	
4.91791	
4.84314	
4.75006	
4.70428	
4.73938	
4.76227	
4.85077	
5.03845	
5.16663	
5.24445	
5.35736	
5.53131	
5.58472	
5.45349	
5.32532	
5.2063	
5.0415	
4.83856	
4.68445	
4.57764	
4.50745	
4.4632	
4.45709	
4.51508	
4.56543	
4.57611	
4.6402	
4.70276	
4.73328	
4.75616	
4.78668	
4.82635	
4.85077	
4.8645	
4.90112	
4.94995	
4.94385	
4.91333	
4.91638	
4.9118	
4.90723	
4.89197	
4.86603	
4.84161	
4.84924	
5.00793	
5.29785	
5.50842	
5.61066	
5.59082	
5.47943	
5.38635	
5.29785	
5.18036	
5.07507	
4.93927	
4.80804	
4.6875	
4.56543	
4.51508	
4.60205	
4.78058	
4.87061	
4.95758	
4.98352	
4.99115	
5.00336	
4.98352	
4.93622	
4.92401	
4.90723	
4.95758	
4.95911	
4.94843	
4.93164	
4.92401	
4.91791	
4.92554	
4.89197	
4.89655	
4.91333	
5.02167	
5.05676	
5.01404	
4.91028	
4.84009	
4.7821	
4.73022	
4.71954	
4.71344	
4.72107	
4.71497	
4.71649	
4.73938	
4.73633	
4.76379	
4.85077	
4.94232	
5.00336	
4.96826	
4.93317	
4.89044	
4.85992	
4.84924	
4.85535	
4.84619	
4.87671	
4.94385	
4.96674	
4.94843	
4.94537	
4.96826	
4.97437	
4.96674	
4.94385	
4.91638	
4.88892	
4.85687	
4.83246	
4.82178	
4.80804	
4.8233	
4.93164	
4.9881	
4.97742	
4.94385	
4.93774	
4.9118	
4.89197	
4.86755	
4.80957	
4.76685	
4.74243	
4.71497	
4.67377	
4.68445	
4.7226	
4.78516	
4.80194	
4.83551	
4.88739	
4.94537	
4.96979	
5.1178	
5.13306	
5.15594	
5.23071	
5.4184	
5.50995	
5.43671	
5.31464	
5.17578	
5.03998	
4.9118	
4.76685	
4.65546	
4.58221	
4.54559	
4.54102	
4.57611	
4.56543	
4.58679	
4.63104	
4.66461	
4.67834	
4.69818	
4.74091	
4.80499	
4.97284	
5.05066	
5.06287	
5.01556	
4.96674	
4.91638	
4.86908	
4.8172	
4.76837	
4.73022	
4.70123	
4.71649	
4.76074	
4.75616	
4.76685	
4.80194	
4.82635	
4.83398	
4.8233	
4.81567	
4.82635	
4.85077	
4.94537	
4.95911	
4.94537	
4.94995	
4.96368	
4.92706	
4.88892	
4.88586	
4.89349	
4.94843	
4.92554	
4.90417	
4.91943	
4.8996	
4.83246	
4.81415	
4.78973	
4.776	
4.76379	
4.76685	
4.7699	
4.76074	
4.76379	
4.79889	
4.80042	
4.80347	
4.80499	
4.81873	
4.82788	
4.81415	
4.80804	
4.79126	
4.81567	
4.86603	
4.94537	
4.96216	
4.97742	
4.9942	
4.9881	
4.95148	
4.91943	
4.90723	
4.89197	
4.85077	
4.79736	
4.76379	
4.75006	
4.75616	
4.76227	
4.75616	
4.78516	
4.79431	
4.78973	
4.79279	
4.80652	
4.81415	
4.82635	
4.89502	
5.03845	
5.14832	
5.16357	
5.12085	
5.0766	
5.00336	
4.95758	
4.89349	
4.82788	
4.78516	
4.776	
4.75159	
4.71954	
4.66919	
4.66766	
4.67987	
4.68445	
4.67987	
4.69055	
4.77142	
4.8172	
4.84161	
4.84009	
4.84161	
4.83704	
4.83856	
4.83246	
4.80499	
4.80804	
5.15442	
5.28412	
5.26276	
5.17578	
5.08881	
5.01862	
4.96216	
4.83704	
4.73328	
4.65851	
4.61426	
4.61121	
4.60968	
4.57306	
4.58679	
4.63409	
4.70581	
4.75616	
4.78058	
4.79431	
4.80652	
4.80652	
4.80194	
4.83856	
4.82483	
4.8111	
4.78973	
4.79279	
4.84161	
4.86603	
4.83246	
4.80042	
4.776	
4.76379	
4.75159	
4.78668	
4.82635	
4.85077	
4.90875	
4.97284	
5.02625	
5.02777	
4.9942	
4.92706	
4.88586	
4.86755	
4.80957	
4.75006	
4.70428	
4.67987	
4.66766	
4.73328	
4.77295	
4.84009	
4.93011	
4.98199	
4.98199	
4.96674	
5.03082	
5.00946	
4.9942	
4.95758	
4.91943	
4.85077	
4.78973	
4.74396	
4.69818	
4.67224	
4.65088	
4.61121	
4.60205	
4.62189	
4.64172	
4.65393	
4.69666	
4.84924	
5.18341	
5.31006	
5.26733	
5.19257	
5.08118	
5.01862	
4.95605	
4.83551	
4.74701	
4.65393	
4.58527	
4.60358	
4.63104	
4.58221	
4.58679	
4.61884	
4.66309	
4.6814	
4.66766	
4.65698	
4.66614	
4.69055	
4.7226	
4.74243	
4.75464	
4.76074	
4.79736	
4.92249	
4.98047	
4.99573	
4.99725	
4.96368	
4.95605	
4.89197	
4.80499	
4.76074	
4.72412	
4.70734	
4.75922	
4.80804	
4.83704	
4.93164	
4.9408	
4.93622	
4.89655	
4.86298	
4.84009	
4.81567	
4.78973	
4.73022	
4.70734	
4.7226	
4.71954	
4.70581	
4.69818	
4.70581	
4.69666	
4.70886	
4.69513	
4.66766	
4.71802	
4.76379	
4.80804	
4.84467	
4.84772	
4.83704	
4.85687	
4.8584	
4.83856	
4.86755	
4.85687	
4.83856	
4.82941	
4.7821	
4.78058	
4.79736	
4.76379	
4.7348	
4.7348	
4.75922	
4.76532	
4.78058	
4.8172	
4.97437	
5.00488	
4.97589	
5.02472	
5.01709	
5.00793	
4.9942	
4.99115	
4.92401	
4.83856	
4.87213	
4.87061	
4.84924	
4.8233	
4.80957	
4.80499	
4.79279	
4.75006	
4.71802	
4.68445	
4.67072	
4.67224	
4.64935	
4.63867	
4.65851	
4.71497	
4.83246	
4.83856	
4.83398	
5.02625	
5.16357	
5.23987	
5.20477	
5.15747	
5.06897	
4.98199	
4.88129	
4.78516	
4.67987	
4.60205	
4.56085	
4.49829	
4.45404	
4.47845	
4.49219	
4.53644	
4.58832	
4.64783	
4.77448	
4.87976	
4.9881	
4.9942	
4.95453	
4.94385	
4.89655	
4.84772	
4.80652	
4.76685	
4.73785	
4.7287	
4.73938	
4.76837	
4.77448	
4.7699	
4.7821	
4.82483	
4.82635	
4.78973	
4.776	
4.76532	
4.74243	
4.72717	
4.74243	
4.80652	
4.89197	
4.91638	
4.8996	
4.87366	
4.83704	
4.82635	
4.81873	
4.79584	
4.75464	
4.72412	
4.70734	
4.69208	
4.69513	
4.70276	
4.71344	
4.74854	
4.77295	
4.76837	
4.78973	
4.87061	
4.93317	
4.91791	
5.01709	
4.9881	
4.93317	
4.88281	
4.83704	
4.83856	
4.85077	
4.81262	
4.76379	
4.7226	
4.776	
4.7821	
4.75311	
4.75311	
4.73633	
4.76837	
4.8111	
4.91638	
4.95911	
4.98199	
4.9942	
5.01251	
4.99878	
4.95911	
4.90875	
4.83551	
4.7699	
4.71649	
4.6875	
4.67834	
4.67377	
4.67529	
4.67682	
4.68903	
4.73785	
4.84772	
4.9057	
4.90723	
4.88586	
4.86755	
4.83398	
4.80499	
4.77295	
4.76837	
4.74854	
4.74243	
4.73938	
4.71649	
4.67529	
4.65546	
4.66614	
4.6875	
4.71802	
4.75159	
4.8172	
4.84161	
4.88586	
4.90112	
4.87213	
4.84619	
4.84009	
4.83246	
4.81415	
4.82483	
4.86145	
4.9118	
5.00336	
5.03082	
5.05829	
5.03998	
5.05219	
5.04608	
5.01404	
4.94232	
4.89807	
4.81873	
4.74701	
4.68903	
4.63715	
4.60968	
4.61731	
4.6524	
4.66766	
4.69055	
4.70886	
4.72717	
4.72412	
4.71954	
4.7287	
4.73938	
4.76532	
4.80652	
4.81262	
4.80804	
4.82178	
4.83704	
4.84772	
4.84009	
4.84161	
4.86908	
4.91791	
4.92859	
4.8996	
4.89044	
4.92096	
4.91028	
4.90417	
4.85687	
4.8111	
4.77448	
4.73785	
4.75006	
4.76685	
4.74396	
4.7226	
4.71191	
4.73328	
4.76685	
4.84619	
4.89349	
4.94537	
4.96216	
4.93011	
4.90723	
4.88281	
4.86755	
4.83398	
4.78363	
4.74548	
4.71954	
4.71954	
4.74091	
4.77295	
4.77448	
4.87061	
4.953	
4.9942	
4.97589	
4.94843	
4.91791	
4.88129	
4.84314	
4.82178	
4.84161	
4.81873	
4.76532	
4.74396	
4.75311	
4.75006	
4.75616	
4.77753	
4.82788	
4.85535	
4.85687	
4.85077	
4.83704	
4.80652	
4.7821	
4.80042	
4.80347	
4.77905	
4.76532	
4.953	
5.28717	
5.38483	
5.32379	
5.20935	
5.07813	
4.95758	
4.84924	
4.73175	
4.62799	
4.54865	
4.47693	
4.44641	
4.44489	
4.45862	
4.49677	
4.54559	
4.61426	
4.70123	
4.7821	
4.83704	
4.84467	
4.85535	
4.91791	
4.94232	
4.94843	
4.9408	
4.93011	
4.92096	
4.89807	
4.84619	
4.80194	
4.83246	
4.88892	
4.92096	
4.91943	
4.89197	
4.81415	
4.76685	
4.76837	
4.8111	
4.8645	
4.96216	
4.94385	
4.90265	
4.85535	
4.8172	
4.79736	
4.86755	
4.85535	
4.82178	
4.78668	
4.7226	
4.67987	
4.67987	
4.67224	
4.66766	
4.61578	
4.58374	
4.56085	
4.56543	
4.60968	
4.68903	
4.82635	
4.91638	
4.8996	
4.90417	
4.91028	
4.89655	
4.87213	
4.9057	
4.87518	
4.83856	
4.80804	
4.78973	
4.80804	
4.79431	
4.75159	
4.73175	
4.73022	
4.73785	
4.73328	
4.70428	
4.6875	
4.67987	
4.70123	
4.71497	
4.74701	
4.81567	
4.87976	
4.92859	
4.92401	
4.91943	
4.91028	
4.89349	
4.87976	
4.93927	
4.97284	
4.99268	
4.97742	
4.93317	
4.89655	
4.85535	
4.84161	
4.8172	
4.7699	
4.77905	
4.82941	
4.81873	
4.79889	
4.84467	
4.87823	
4.92554	
4.96826	
4.96521	
5.0293	
4.96521	
4.89197	
4.83093	
4.80957	
4.78973	
4.80194	
4.7699	
4.7287	
4.77295	
4.84467	
4.86603	
4.86603	
4.82178	
4.80804	
4.82635	
4.80194	
4.75006	
4.72107	
4.71649	
4.73022	
4.71649	
4.69208	
4.70428	
4.71344	
4.83246	
4.89349	
4.92554	
4.99115	
4.98657	
4.98505	
4.96521	
4.88586	
4.80499	
4.75464	
4.6875	
4.63257	
4.65698	
4.70581	
4.83246	
4.92249	
4.93469	
4.92859	
4.9057	
4.87823	
4.91791	
4.94232	
4.8996	
4.83704	
4.80499	
4.76837	
4.73175	
4.71497	
4.70734	
4.71191	
4.70886	
4.74548	
4.73633	
4.73938	
4.87366	
5.09033	
5.2597	
5.33447	
5.30548	
5.21393	
5.09491	
4.98199	
4.87213	
4.76685	
4.68292	
4.61273	
4.5517	
4.51813	
4.52728	
4.5517	
4.58832	
4.61121	
4.6463	
4.67987	
4.71344	
4.74854	
4.79431	
4.8172	
4.82635	
4.82483	
4.80499	
4.79279	
4.80652	
4.88281	
5.07965	
5.11932	
5.03693	
4.96521	
4.87823	
4.80804	
4.76227	
4.71497	
4.65088	
4.57916	
4.54407	
4.52423	
4.55475	
4.61578	
4.65088	
4.74243	
4.82635	
4.81873	
4.79584	
4.79126	
4.78363	
4.7699	
4.7699	
4.77905	
4.78058	
4.76379	
4.74701	
4.7348	
4.73175	
4.75616	
4.79889	
4.84772	
4.85535	
4.84314	
4.84467	
4.8584	
4.84619	
4.82483	
4.8233	
4.80499	
4.78668	
4.7821	
4.81567	
4.84161	
4.83551	
4.81415	
4.84467	
4.85992	
4.86908	
4.85077	
4.84009	
4.8111	
4.80042	
4.80042	
4.81567	
4.81873	
4.80652	
4.83246	
4.82483	
4.81415	
4.80957	
4.81567	
4.84467	
4.89807	
4.92706	
4.90723	
4.88586	
4.85535	
4.81873	
4.79584	
4.76532	
4.74701	
4.71802	
4.69818	
4.66919	
4.75006	
4.85992	
4.92859	
4.96216	
4.97284	
4.9408	
4.88129	
4.82483	
4.78973	
4.7821	
4.74548	
4.74854	
4.74091	
4.71649	
4.69055	
4.6814	
4.70886	
4.80347	
4.93164	
5.02167	
5.03082	
4.96063	
4.90112	
4.85382	
4.81262	
4.78058	
4.74701	
4.71039	
4.68597	
4.68903	
4.77142	
4.82178	
4.82788	
4.82788	
4.81567	
4.80194	
4.78973	
4.80042	
4.80347	
4.78668	
4.75922	
4.73938	
4.74396	
4.79279	
4.8584	
4.89197	
4.89502	
4.87518	
4.85535	
4.83856	
4.82483	
4.8172	
4.81873	
4.77753	
4.76227	
4.73175	
4.71039	
4.72107	
4.73633	
4.73328	
4.73175	
4.73633	
4.7348	
4.72717	
4.73328	
4.75006	
4.78516	
4.80347	
4.82635	
4.84009	
4.86908	
4.88586	
4.86908	
4.91028	
4.95453	
4.953	
4.96521	
4.96216	
4.92096	
4.8645	
4.82178	
4.8111	
4.79889	
4.79889	
4.81873	
4.81567	
4.80194	
4.78058	
4.7699	
4.7348	
4.72107	
4.7287	
4.7287	
4.74396	
4.77142	
4.75006	
4.75311	
4.82941	
4.87823	
4.92401	
4.90875	
4.87366	
4.81415	
4.75006	
4.71954	
4.7226	
4.72412	
4.73175	
4.74091	
4.76227	
4.74396	
4.71191	
4.70734	
4.70886	
4.73938	
4.82941	
4.87366	
4.87061	
4.85077	
4.83856	
4.81873	
4.8172	
4.78973	
4.776	
4.74548	
4.71344	
4.67834	
4.6524	
4.67377	
4.68903	
4.67529	
4.66766	
4.65698	
4.68445	
4.69208	
4.69818	
4.74091	
4.78516	
4.78516	
4.77753	
4.81262	
4.88892	
4.91028	
4.90723	
4.89655	
4.86603	
4.85992	
4.83704	
4.79889	
4.77448	
4.74091	
4.7226	
4.72107	
4.7226	
4.7821	
4.7699	
4.75464	
4.75616	
4.75006	
4.73785	
4.73785	
4.73022	
4.71344	
4.70123	
4.71039	
4.75464	
4.81262	
4.8233	
4.8111	
4.81262	
4.81873	
4.84314	
4.83704	
4.8111	
4.79431	
4.77142	
4.75159	
4.74091	
4.75464	
4.77448	
4.80194	
4.83246	
4.84009	
4.86603	
4.85077	
4.82788	
4.79279	
4.80194	
4.87671	
4.99115	
5.0293	
5.00336	
4.94995	
4.87671	
4.81567	
4.79126	
4.75616	
4.71649	
4.76227	
4.77753	
4.76227	
4.776	
4.77142	
4.73633	
4.74243	
4.73785	
4.7287	
4.71802	
4.70276	
4.69666	
4.67072	
4.66766	
4.65546	
4.66614	
4.69513	
4.73328	
4.75311	
4.75311	
4.73938	
4.73175	
4.78973	
4.84772	
4.9057	
4.9057	
4.87823	
4.84467	
4.83398	
4.81415	
4.80957	
4.84009	
4.8111	
4.72107	
4.66309	
4.64172	
4.60815	
4.57153	
4.56543	
4.5929	
4.67377	
4.71802	
4.79431	
4.88892	
4.96521	
4.98199	
4.95758	
4.90265	
4.8584	
4.80804	
4.76074	
4.7348	
4.68903	
4.64783	
4.65546	
4.6463	
4.63104	
4.64783	
4.67377	
4.71802	
4.78973	
4.87976	
4.95453	
4.9881	
5.01709	
5.01251	
4.96216	
4.90875	
4.84924	
4.84009	
4.776	
4.72412	
4.72107	
4.74701	
4.79889	
4.82178	
4.77295	
4.76227	
4.84314	
4.87518	
4.84924	
4.78973	
4.74091	
4.69513	
4.65851	
4.6463	
4.66614	
4.66461	
4.64935	
4.63562	
4.69666	
4.77448	
4.91028	
4.94843	
4.91028	
4.87671	
4.84772	
4.79889	
4.7287	
4.70276	
4.6875	
4.66003	
4.62341	
4.61273	
4.6402	
4.65546	
4.66766	
4.67224	
4.69513	
4.73785	
4.78973	
4.81262	
4.84467	
4.83246	
4.80347	
4.77753	
4.76227	
4.74091	
4.7226	
4.73022	
4.76837	
4.77753	
4.69971	
4.66766	
4.66003	
4.71649	
4.75922	
4.7699	
4.80042	
4.80347	
4.87823	
4.91791	
4.91333	
4.89807	
4.91943	
4.91333	
4.9057	
4.86755	
4.83398	
4.78668	
4.72412	
4.6814	
4.70734	
4.72717	
4.7348	
4.76837	
4.74854	
4.70886	
4.71344	
4.72107	
4.72107	
4.74854	
4.76379	
4.75159	
4.74396	
4.77295	
4.78058	
4.78516	
4.8172	
4.8172	
4.89807	
4.98047	
5.03845	
5.03387	
5.01556	
4.9408	
4.84314	
4.7821	
4.71649	
4.67834	
4.6814	
4.67224	
4.67072	
4.65546	
4.67072	
4.71039	
4.72412	
4.74091	
4.74243	
4.74701	
4.74091	
4.76074	
4.8645	
4.93469	
4.92859	
4.89197	
4.83246	
4.78363	
4.7348	
4.69513	
4.66919	
4.65546	
4.66919	
4.66309	
4.66614	
4.64325	
4.65088	
4.67834	
4.69971	
4.73328	
4.78973	
4.88129	
4.93469	
4.89655	
4.86603	
4.83246	
4.81415	
4.81873	
4.84467	
4.84467	
4.81567	
4.77448	
4.76379	
4.75464	
4.7287	
4.70581	
4.72717	
4.74396	
4.74854	
4.75922	
4.73785	
4.71649	
4.70123	
4.68292	
4.66919	
4.66919	
4.67072	
4.70123	
4.72717	
4.7821	
4.80957	
4.80042	
4.79279	
4.77905	
4.77753	
4.76074	
4.74548	
4.73175	
4.71039	
4.70123	
4.69513	
4.70581	
4.70581	
4.69055	
4.68445	
4.7226	
4.8111	
4.88739	
4.91028	
4.90417	
4.92249	
4.9118	
4.90417	
4.86755	
4.81567	
4.77295	
4.7287	
4.73785	
4.776	
4.76227	
4.73938	
4.7226	
4.71191	
4.71344	
4.72717	
4.7348	
4.73175	
4.71191	
4.6875	
4.65851	
4.64172	
4.65851	
4.66614	
4.66919	
4.66919	
4.67377	
4.68903	
4.79126	
4.81873	
4.8584	
4.89655	
4.85992	
4.85535	
4.87976	
4.90112	
4.85535	
4.81415	
4.81873	
4.82941	
4.76532	
4.73022	
4.71649	
4.68903	
4.66614	
4.65698	
4.64478	
4.64325	
4.6524	
4.67987	
4.69055	
4.69055	
4.69666	
4.71497	
4.79279	
4.83856	
4.82941	
4.81262	
4.8111	
4.83246	
4.83246	
4.80652	
4.7821	
4.74091	
4.71954	
4.70276	
4.69055	
4.65851	
4.61884	
4.60968	
4.60815	
4.61121	
4.6402	
4.68292	
4.68597	
4.70886	
4.73785	
4.77295	
4.78668	
4.75464	
4.74243	
4.73175	
4.7226	
4.71649	
4.74243	
4.78058	
4.80042	
4.80499	
4.81873	
4.88739	
4.86908	
4.83398	
4.80957	
4.79736	
4.7699	
4.74548	
4.7226	
4.71039	
4.69513	
4.66003	
4.64935	
4.67377	
4.69208	
4.75006	
4.776	
4.78058	
4.78516	
4.82788	
4.83704	
4.83093	
4.81567	
4.78668	
4.73785	
4.69971	
4.6814	
4.67072	
4.67529	
4.6814	
4.67682	
4.70581	
4.88586	
5.02014	
5.01251	
4.96521	
4.93927	
4.89197	
4.84619	
4.78363	
4.71344	
4.6463	
4.57916	
4.52423	
4.48914	
4.48608	
4.52118	
4.5639	
4.6402	
4.70123	
4.72412	
4.71649	
4.7287	
4.71802	
4.69818	
4.6814	
4.65851	
4.64783	
4.68597	
4.70581	
4.71344	
4.75006	
4.75311	
4.80804	
4.80347	
4.80194	
4.80499	
4.86603	
4.87518	
4.86603	
4.81567	
4.77905	
4.7287	
4.70123	
4.68292	
4.68597	
4.69208	
4.66003	
4.65088	
4.65088	
4.64935	
4.64172	
4.66919	
4.68445	
4.69055	
4.68903	
4.70428	
4.69971	
4.69666	
4.70428	
4.71344	
4.6814	
4.69208	
4.76074	
4.76837	
4.77905	
4.80957	
4.84161	
4.95148	
4.98047	
4.95911	
4.89655	
4.82941	
4.76837	
4.71191	
4.66766	
4.62036	
4.61273	
4.6051	
4.56238	
4.54559	
4.55475	
4.61578	
4.67224	
4.69818	
4.71344	
4.7226	
4.75159	
4.83246	
4.9408	
4.953	
4.91028	
4.8584	
4.80194	
4.76074	
4.72412	
4.68903	
4.67377	
4.64935	
4.63867	
4.64325	
4.63562	
4.63257	
4.63104	
4.62646	
4.63562	
4.66461	
4.69666	
4.7287	
4.72107	
4.71954	
4.72717	
4.70734	
4.73938	
4.74701	
4.74243	
4.74091	
4.72107	
4.70734	
4.69971	
4.69971	
4.71802	
4.80194	
4.83551	
4.82635	
4.79889	
4.76379	
4.71497	
4.67377	
4.68292	
4.71191	
4.73785	
4.69971	
4.65546	
4.62646	
4.63409	
4.73633	
4.75006	
4.71191	
4.69818	
4.69666	
4.69208	
4.6875	
4.71039	
4.71191	
4.67987	
4.64935	
4.64325	
4.63715	
4.64325	
4.65698	
4.67987	
4.8584	
4.94537	
4.953	
4.90417	
4.85992	
4.82635	
4.80194	
4.73022	
4.66919	
4.62799	
4.60052	
4.57916	
4.57611	
4.54407	
4.55475	
4.6051	
4.72107	
4.77295	
4.7821	
4.77905	
4.78516	
4.75922	
4.78058	
4.7821	
4.7348	
4.68292	
4.65698	
4.65851	
4.63867	
4.63257	
4.60815	
4.63562	
4.6814	
4.76227	
4.82483	
4.82483	
4.78363	
4.74701	
4.7287	
4.72107	
4.71191	
4.70734	
4.7287	
4.71191	
4.6875	
4.65088	
4.64172	
4.63867	
4.63257	
4.62799	
4.63867	
4.64478	
4.63867	
4.62036	
4.65698	
4.66309	
4.67682	
4.68292	
4.69055	
4.70123	
4.70123	
4.71954	
4.71954	
4.7699	
4.79431	
4.77295	
4.75922	
4.71191	
4.66766	
4.66003	
4.63562	
4.6463	
4.63409	
4.60968	
4.59137	
4.60052	
4.63562	
4.70581	
4.76685	
4.74701	
4.72412	
4.70123	
4.66614	
4.6402	
4.61426	
4.60968	
4.62036	
4.62494	
4.62494	
4.63867	
4.64172	
4.64172	
4.64783	
4.67224	
4.75616	
4.94843	
5.03845	
5.00641	
4.96674	
4.90875	
4.82178	
4.75311	
4.68292	
4.62341	
4.58069	
4.56085	
4.52881	
4.53033	
4.55322	
4.56543	
4.58069	
4.5929	
4.62799	
4.65546	
4.74243	
4.80347	
4.84009	
4.8996	
4.92401	
4.90723	
4.86908	
4.8172	
4.75159	
4.70734	
4.70276	
4.6814	
4.63562	
4.57916	
4.54102	
4.53796	
4.53339	
4.53186	
4.54559	
4.55017	
4.54407	
4.58832	
4.6875	
4.83551	
4.8645	
4.86145	
4.83246	
4.76685	
4.71497	
4.71191	
4.69971	
4.70581	
4.65546	
4.61273	
4.63562	
4.62799	
4.61884	
4.65546	
4.65698	
4.64478	
4.66919	
4.69971	
4.75922	
4.74548	
4.69513	
4.66614	
4.67072	
4.66003	
4.65698	
4.65698	
4.71954	
4.74243	
4.71954	
4.69513	
4.65698	
4.66461	
4.6875	
4.71039	
4.72107	
4.71039	
4.70276	
4.70886	
4.72412	
4.71191	
4.67529	
4.65851	
4.64935	
4.64935	
4.65088	
4.64325	
4.64478	
4.65088	
4.64783	
4.65698	
4.68292	
4.75922	
4.8584	
4.90723	
4.9118	
4.89044	
4.83246	
4.75922	
4.70734	
4.66461	
4.61884	
4.57458	
4.55322	
4.55017	
4.54254	
4.57916	
4.62646	
4.68292	
4.72717	
4.8645	
4.96826	
4.98352	
4.99573	
4.97131	
4.93927	
4.89349	
4.81262	
4.75159	
4.64783	
4.57306	
4.52576	
4.49677	
4.48761	
4.48456	
4.52881	
4.56085	
4.58527	
4.59137	
4.60815	
4.60968	
4.63562	
4.6524	
4.67072	
4.67834	
4.68903	
4.6875	
4.68292	
4.69971	
4.73785	
4.73633	
4.73938	
4.77753	
4.7699	
4.75922	
4.73328	
4.75616	
4.73328	
4.71191	
4.69055	
4.67072	
4.66003	
4.64478	
4.62036	
4.62494	
4.62036	
4.6463	
4.66309	
4.6463	
4.70886	
4.73633	
4.73785	
4.74548	
4.71649	
4.70886	
4.71649	
4.73938	
4.75006	
4.73328	
4.70886	
4.68903	
4.66309	
4.64325	
4.67529	
4.6814	
4.66766	
4.6524	
4.64935	
4.68292	
4.70581	
4.69971	
4.70428	
4.69666	
4.6814	
4.68292	
4.67529	
4.65393	
4.63409	
4.61731	
4.60663	
4.61121	
4.63104	
4.72107	
4.87518	
4.93469	
4.95148	
4.98047	
4.98657	
4.92859	
4.84314	
4.75006	
4.67224	
4.60358	
4.52423	
4.46472	
4.4342	
4.43726	
4.44489	
4.48303	
4.53186	
4.57611	
4.56238	
4.57611	
4.60968	
4.61578	
4.62494	
4.65698	
4.70123	
4.71649	
4.7226	
4.73785	
4.80347	
4.80652	
4.80347	
4.80499	
4.80194	
4.77142	
4.69818	
4.65851	
4.62189	
4.58527	
4.55475	
4.54407	
4.52728	
4.52118	
4.53186	
4.54865	
4.58527	
4.6051	
4.62494	
4.66461	
4.75464	
4.77295	
4.76837	
4.76074	
4.776	
4.77142	
4.73785	
4.68292	
4.63562	
4.60815	
4.58679	
4.59442	
4.57916	
4.58527	
4.61578	
4.62341	
4.61426	
4.6402	
4.62494	
4.62494	
4.61121	
4.58679	
4.57458	
4.71344	
4.95605	
5.04913	
5.04608	
4.99573	
4.91791	
4.86298	
4.78668	
4.71344	
4.63257	
4.56848	
4.54559	
4.54559	
4.50745	
4.53339	
4.54407	
4.53796	
4.52728	
4.52271	
4.55933	
4.60052	
4.6402	
4.65546	
4.6463	
4.70581	
4.73175	
4.71802	
4.69666	
4.66919	
4.64478	
4.60205	
4.53949	
4.49829	
4.48761	
4.48456	
4.54559	
4.59747	
4.69055	
4.75006	
4.83856	
4.95148	
4.93927	
4.90417	
4.85077	
4.8172	
4.82941	
4.78363	
4.72412	
4.63867	
4.57611	
4.53644	
4.51355	
4.48914	
4.47998	
4.48608	
4.49219	
4.51965	
4.54102	
4.53644	
4.5639	
4.70276	
4.86145	
4.93011	
4.95758	
4.96521	
4.96063	
4.92096	
4.83551	
4.72717	
4.65088	
4.57458	
4.57764	
4.52881	
4.50134	
4.49371	
4.48914	
4.46777	
4.45404	
4.44641	
4.46167	
4.50897	
4.58527	
4.64172	
4.59442	
4.71039	
4.79584	
4.86298	
4.86908	
4.90723	
4.96063	
4.89044	
4.80957	
4.69513	
4.60968	
4.56085	
4.55933	
4.56238	
4.53949	
4.55322	
4.53339	
4.51965	
4.52118	
4.52271	
4.48608	
4.53033	
4.71344	
4.83093	
4.80957	
4.76074	
4.75616	
4.75464	
4.76379	
4.75311	
4.72107	
4.65851	
4.61273	
4.57916	
4.53339	
4.50592	
4.49371	
4.47998	
4.46472	
4.4693	
4.47845	
4.49677	
4.51508	
4.49677	
4.50897	
4.55017	
4.57916	
4.55933	
4.54865	
4.54102	
4.54865	
4.57306	
4.61121	
4.65088	
4.67529	
4.66614	
4.65698	
4.62494	
4.59595	
4.58374	
4.59595	
4.60815	
4.60052	
4.64325	
4.73938	
4.85382	
4.82178	
4.80957	
4.86755	
4.85687	
4.84467	
4.75464	
4.67377	
4.61731	
4.54865	
4.51355	
4.51965	
4.49982	
4.48608	
4.54559	
4.59442	
4.58374	
4.56238	
4.64783	
4.80804	
4.92706	
4.94232	
4.87366	
4.84772	
4.89807	
4.91333	
4.83856	
4.72107	
4.62036	
4.54407	
4.47693	
4.40521	
4.34265	
4.31824	
4.32129	
4.32739	
4.35638	
4.38843	
4.42657	
4.4754	
4.52728	
4.54712	
4.55627	
4.5639	
4.63562	
4.67682	
4.66614	
4.64783	
4.62494	
4.60052	
4.57306	
4.54254	
4.53796	
4.54254	
4.55933	
4.5517	
4.52881	
4.53033	
4.53644	
4.54559	
4.55627	
4.57153	
4.58221	
4.59442	
4.61273	
4.62189	
4.59747	
4.58984	
4.59747	
4.59137	
4.57306	
4.62494	
4.64325	
4.65546	
4.62494	
4.64325	
4.68445	
4.74091	
4.75006	
4.71954	
4.6875	
4.67529	
4.65546	
4.63562	
4.62341	
4.63715	
4.63867	
4.61731	
4.59137	
4.58069	
4.56543	
4.54712	
4.53186	
4.54102	
4.65546	
4.75464	
4.74091	
4.74243	
4.7287	
4.70886	
4.66919	
4.62189	
4.5929	
4.60052	
4.57001	
4.54407	
4.4693	
4.42963	
4.4342	
4.4281	
4.42352	
4.44183	
4.48608	
4.60205	
4.67072	
4.73328	
4.78668	
4.83093	
4.8645	
4.93011	
4.92249	
4.9118	
4.90265	
4.82178	
4.71802	
4.63867	
4.56085	
4.51355	
4.46472	
4.41895	
4.42657	
4.41437	
4.41284	
4.40521	
4.43268	
4.4754	
4.45709	
4.47998	
4.53339	
4.57764	
4.6402	
4.67224	
4.69513	
4.70886	
4.70123	
4.6814	
4.66614	
4.67377	
4.6814	
4.67529	
4.64172	
4.58527	
4.5517	
4.56848	
4.56085	
4.54712	
4.52118	
4.50134	
4.48151	
4.4754	
4.56085	
4.64935	
4.69971	
4.69971	
4.71039	
4.71802	
4.73022	
4.81567	
4.78668	
4.80042	
4.75464	
4.73022	
4.67987	
4.61731	
4.55322	
4.51813	
4.49677	
4.55475	
4.58679	
4.63104	
4.64478	
4.64172	
4.61731	
4.62036	
4.58679	
4.54407	
4.53186	
4.49982	
4.48914	
4.50134	
4.52271	
4.50592	
4.49677	
4.50897	
4.55017	
4.57001	
4.57153	
4.58679	
4.58221	
4.57153	
4.57153	
4.57306	
4.5639	
4.58069	
4.62494	
4.66614	
4.66309	
4.64325	
4.64783	
4.65698	
4.71954	
4.74243	
4.75159	
4.74854	
4.71497	
4.64325	
4.57611	
4.5517	
4.52423	
4.55017	
4.57764	
4.59595	
4.59747	
4.6463	
4.64325	
4.65698	
4.69666	
4.73022	
4.69818	
4.65546	
4.61273	
4.58069	
4.54712	
4.52118	
4.5166	
4.52423	
4.52728	
4.48761	
4.48151	
4.48914	
4.52881	
4.56848	
4.5639	
4.63409	
4.71191	
4.77295	
4.82788	
4.8111	
4.78058	
4.73938	
4.68903	
4.66461	
4.61121	
4.53796	
4.47845	
4.4754	
4.49066	
4.49066	
4.51508	
4.53186	
4.56848	
4.55933	
4.56543	
4.57611	
4.59747	
4.5929	
4.56543	
4.53949	
4.52423	
4.53033	
4.52881	
4.52728	
4.53949	
4.55627	
4.59747	
4.64325	
4.65546	
4.64172	
4.63257	
4.61731	
4.58221	
4.56238	
4.56238	
4.56543	
4.57764	
4.59595	
4.60663	
4.61731	
4.6463	
4.6814	
4.78058	
4.84772	
4.91333	
4.92706	
4.88739	
4.84009	
4.79126	
4.78516	
4.71954	
4.63257	
4.5578	
4.56085	
4.59747	
4.59595	
4.55475	
4.48608	
4.45709	
4.44641	
4.45404	
4.47388	
4.47845	
4.50592	
4.50897	
4.50134	
4.60358	
4.70581	
4.84619	
4.9118	
4.97589	
4.96521	
4.88892	
4.80804	
4.71344	
4.63715	
4.54865	
4.4693	
4.41284	
4.40216	
4.40521	
4.39606	
4.41284	
4.42505	
4.43878	
4.45404	
4.55017	
4.61426	
4.61884	
4.63104	
4.60358	
4.57306	
4.5639	
4.55322	
4.53339	
4.54712	
4.5578	
4.57153	
4.57153	
4.58069	
4.63104	
4.68445	
4.7287	
4.75922	
4.77295	
4.75616	
4.7348	
4.69666	
4.71954	
4.65851	
4.59595	
4.55475	
4.53796	
4.5166	
4.49066	
4.50134	
4.52881	
4.58832	
4.64172	
4.67072	
4.66766	
4.62341	
4.61273	
4.60205	
4.57306	
4.61121	
4.69971	
4.68292	
4.66309	
4.76379	
4.82178	
4.81415	
4.80194	
4.78973	
4.71954	
4.6402	
4.56238	
4.50439	
4.44946	
4.42963	
4.43726	
4.41895	
4.42352	
4.44336	
4.48608	
4.51355	
4.5166	
4.54865	
4.63409	
4.67377	
4.67834	
4.65546	
4.66003	
4.6524	
4.62341	
4.63562	
4.70428	
4.69818	
4.69666	
4.79126	
4.82178	
4.82635	
4.82788	
4.76837	
4.70276	
4.63867	
4.57306	
4.52423	
4.47845	
4.42963	
4.39758	
4.41284	
4.52576	
4.65546	
4.68292	
4.75159	
4.7821	
4.80957	
4.77295	
4.70428	
4.63867	
4.58527	
4.54102	
4.50134	
4.47845	
4.46625	
4.46777	
4.46625	
4.46777	
4.48303	
4.49829	
4.53033	
4.55933	
4.58374	
4.60052	
4.62646	
4.62341	
4.61731	
4.61273	
4.6051	
4.62341	
4.66919	
4.6814	
4.70276	
4.7348	
4.71191	
4.71802	
4.73785	
4.77142	
4.74091	
4.71344	
4.68903	
4.61884	
4.55017	
4.51508	
4.50439	
4.49677	
4.46625	
4.43268	
4.60968	
4.91943	
5.06439	
5.04761	
4.9942	
4.90723	
4.82941	
4.73175	
4.60205	
4.48456	
4.40979	
4.35486	
4.33044	
4.32281	
4.31824	
4.38538	
4.43726	
4.44489	
4.46625	
4.48303	
4.49677	
4.49982	
4.49524	
4.5578	
4.67072	
4.7699	
4.80652	
4.78363	
4.75006	
4.70276	
4.68445	
4.71344	
4.6875	
4.6402	
4.58832	
4.5639	
4.55322	
4.5578	
4.55627	
4.54407	
4.49829	
4.47998	
4.4693	
4.56085	
4.73938	
4.96063	
5.01404	
4.98352	
4.8996	
4.8111	
4.71802	
4.65546	
4.60358	
4.52118	
4.41742	
4.33807	
4.28772	
4.38232	
4.43878	
4.48914	
4.53339	
4.58679	
4.61884	
4.62799	
4.61426	
4.57916	
4.53339	
4.52881	
4.54865	
4.58221	
4.61731	
4.63104	
4.64783	
4.64783	
4.64783	
4.62341	
4.58984	
4.57306	
4.59442	
4.59747	
4.57611	
4.57153	
4.55017	
4.54407	
4.55933	
4.63409	
4.71191	
4.73785	
4.6875	
4.65088	
4.60358	
4.61121	
4.58832	
4.57153	
4.57153	
4.55475	
4.55017	
4.62341	
4.62646	
4.61731	
4.62341	
4.6463	
4.62036	
4.58832	
4.57153	
4.58374	
4.61426	
4.60358	
4.57306	
4.52881	
4.50745	
4.54102	
4.56543	
4.57458	
4.60358	
4.61121	
4.61426	
4.64172	
4.66461	
4.66614	
4.69208	
4.67529	
4.71191	
4.69818	
4.66309	
4.63867	
4.58679	
4.54254	
4.50592	
4.49524	
4.49524	
4.55627	
4.58832	
4.59595	
4.58374	
4.57611	
4.58221	
4.66919	
4.72412	
4.74701	
4.76379	
4.71497	
4.68292	
4.64783	
4.65393	
4.66614	
4.65851	
4.60815	
4.57306	
4.55475	
4.54254	
4.53339	
4.53949	
4.5578	
4.55475	
4.5517	
4.54559	
4.51813	
4.51202	
4.50745	
4.50439	
4.51202	
4.55017	
4.63562	
4.63867	
4.63562	
4.6875	
4.68597	
4.67377	
4.66309	
4.67987	
4.71191	
4.73175	
4.69971	
4.63715	
4.58374	
4.56085	
4.53339	
4.54559	
4.57153	
4.58069	
4.60663	
4.62799	
4.66461	
4.6814	
4.67682	
4.67987	
4.67987	
4.67377	
4.74701	
4.76532	
4.81262	
4.84314	
4.79431	
4.73785	
4.69818	
4.67072	
4.61731	
4.53339	
4.50592	
4.52271	
4.48303	
4.4342	
4.40063	
4.42352	
4.48303	
4.55322	
4.58069	
4.5639	
4.56238	
4.56238	
4.56848	
4.57458	
4.57611	
4.58984	
4.6051	
4.61426	
4.61578	
4.62036	
4.65698	
4.73633	
4.74548	
4.7699	
4.76837	
4.73175	
4.71191	
4.74396	
4.71802	
4.73633	
4.69971	
4.6463	
4.60968	
4.59442	
4.57001	
4.54407	
4.51965	
4.52118	
4.53949	
4.52423	
4.54865	
4.55475	
4.56238	
4.53949	
4.56085	
4.58221	
4.59442	
4.6051	
4.58069	
4.56238	
4.5517	
4.55322	
4.55627	
4.57764	
4.61273	
4.62494	
4.61273	
4.59137	
4.60358	
4.61121	
4.61273	
4.67072	
4.71039	
4.67682	
4.65698	
4.66461	
4.70581	
4.72107	
4.75464	
4.75006	
4.7348	
4.74548	
4.71039	
4.69818	
4.69666	
4.74548	
4.73633	
4.73175	
4.71954	
4.68597	
4.66614	
4.63715	
4.64478	
4.61884	
4.63104	
4.58984	
4.60052	
4.67224	
4.66919	
4.62646	
4.63409	
4.64172	
4.62189	
4.5929	
4.58221	
4.57458	
4.57306	
4.57458	
4.60358	
4.60968	
4.63715	
4.68292	
4.6814	
4.66766	
4.67377	
4.8111	
4.86603	
4.81262	
4.76379	
4.69208	
4.63715	
4.59137	
4.54865	
4.5166	
4.48608	
4.46014	
4.46777	
4.48761	
4.51355	
4.5517	
4.57153	
4.56238	
4.56085	
4.55933	
4.57764	
4.58679	
4.59747	
4.60663	
4.62036	
4.66003	
4.65393	
4.64172	
4.62799	
4.62341	
4.62341	
4.60968	
4.60205	
4.58069	
4.57153	
4.57764	
4.58679	
4.60358	
4.60663	
4.60815	
4.61121	
4.60663	
4.59442	
4.71191	
4.81415	
4.81567	
4.88892	
4.95605	
4.95605	
4.91638	
4.83398	
4.76532	
4.69971	
4.61884	
4.5639	
4.50592	
4.44641	
4.4281	
4.43726	
4.44794	
4.45709	
4.46777	
4.4693	
4.49219	
4.52118	
4.5105	
4.51355	
4.53033	
4.57306	
4.58527	
4.61578	
4.64783	
4.67834	
4.70581	
4.70123	
4.83246	
4.86298	
4.84009	
4.83551	
4.78058	
4.71802	
4.65393	
4.61426	
4.6051	
4.5929	
4.55322	
4.52728	
4.54865	
4.65851	
4.6814	
4.67224	
4.6524	
4.63715	
4.61578	
4.59442	
4.56543	
4.54407	
4.5166	
4.48761	
4.48456	
4.48761	
4.50134	
4.52271	
4.53644	
4.56543	
4.61273	
4.62494	
4.60815	
4.60052	
4.59595	
4.60052	
4.59747	
4.60815	
4.63409	
4.65088	
4.65698	
4.69971	
4.70734	
4.7287	
4.76379	
4.7699	
4.76227	
4.73785	
4.71954	
4.69666	
4.67682	
4.64935	
4.62494	
4.6051	
4.58221	
4.55933	
4.59137	
4.60968	
4.71039	
4.77905	
4.79279	
4.78363	
4.75464	
4.70123	
4.6463	
4.6402	
4.63867	
4.60815	
4.57611	
4.55933	
4.51355	
4.48761	
4.49524	
4.50897	
4.52728	
4.54102	
4.54865	
4.55322	
4.54712	
4.54712	
4.56848	
4.56543	
4.56848	
4.57306	
4.57001	
4.58221	
4.67072	
4.74243	
4.79126	
4.8111	
4.81873	
4.82941	
4.83856	
4.79584	
4.73022	
4.65851	
4.60815	
4.57916	
4.55017	
4.54254	
4.53339	
4.52271	
4.51508	
4.53339	
4.54559	
4.54865	
4.54559	
4.55322	
4.55475	
4.55017	
4.54254	
4.54559	
4.57458	
4.57153	
4.56848	
4.58221	
4.61731	
4.62494	
4.64935	
4.66919	
4.66614	
4.66003	
4.63867	
4.61121	
4.5929	
4.58221	
4.57916	
4.60052	
4.60815	
4.61578	
4.61731	
4.62646	
4.67529	
4.69666	
4.69666	
4.71039	
4.75311	
4.82483	
4.84924	
4.82941	
4.78973	
4.75464	
4.70276	
4.64325	
4.60358	
4.56085	
4.53033	
4.52423	
4.51508	
4.49677	
4.5517	
4.57916	
4.62341	
4.6524	
4.65088	
4.65088	
4.63104	
4.61426	
4.58221	
4.57458	
4.57001	
4.5639	
4.53644	
4.51202	
4.51355	
4.50134	
4.5166	
4.53339	
4.54102	
4.57001	
4.57306	
4.57458	
4.58527	
4.58374	
4.59747	
4.60205	
4.58984	
4.60052	
4.61121	
4.62036	
4.6463	
4.64935	
4.6875	
4.70734	
4.70123	
4.69055	
4.66766	
4.6524	
4.63257	
4.61121	
4.66461	
4.72107	
4.71649	
4.71191	
4.65851	
4.60358	
4.5639	
4.5517	
4.57306	
4.58527	
4.55933	
4.54407	
4.55475	
4.54865	
4.5639	
4.60052	
4.70123	
4.8584	
4.90112	
4.92554	
4.89044	
4.80652	
4.7226	
4.64172	
4.56543	
4.50592	
4.47235	
4.46472	
4.51508	
4.50745	
4.50439	
4.47845	
4.47845	
4.49524	
4.5105	
4.51813	
4.52423	
4.54102	
4.53644	
4.55475	
4.56238	
4.59137	
4.6463	
4.64783	
4.65088	
4.61578	
4.59137	
4.57153	
4.57764	
4.55627	
4.53186	
4.55475	
4.62189	
4.5929	
4.58374	
4.64783	
4.71802	
4.7348	
4.71191	
4.6875	
4.65088	
4.61731	
4.58221	
4.56085	
4.55017	
4.52423	
4.49982	
4.47845	
4.48761	
4.51355	
4.51355	
4.55475	
4.59442	
4.60358	
4.63562	
4.62646	
4.62494	
4.6814	
4.66919	
4.66309	
4.67529	
4.62646	
4.62494	
4.61884	
4.57306	
4.51508	
4.47693	
4.48303	
4.51965	
4.65393	
4.71802	
4.73328	
4.74396	
4.7226	
4.6814	
4.62799	
4.59137	
4.5639	
4.53339	
4.50592	
4.4693	
4.45557	
4.45557	
4.46472	
4.51508	
4.50134	
4.49677	
4.49524	
4.58069	
4.66003	
4.68292	
4.70886	
4.74091	
4.70734	
4.65088	
4.6875	
4.70734	
4.67834	
4.64783	
4.66003	
4.63257	
4.61578	
4.60052	
4.58221	
4.55017	
4.50745	
4.4754	
4.44336	
4.45709	
4.46167	
4.46167	
4.44641	
4.45557	
4.47388	
4.50439	
4.53796	
4.56848	
4.59595	
4.6524	
4.64783	
4.63104	
4.61731	
4.61273	
4.62189	
4.6051	
4.63867	
4.64783	
4.62189	
4.6051	
4.58374	
4.57153	
4.54102	
4.53033	
4.52576	
4.52271	
4.51355	
4.53949	
4.62799	
4.66614	
4.65698	
4.62494	
4.58984	
4.5639	
4.54712	
4.53186	
4.51355	
4.48761	
4.47845	
4.47998	
4.48151	
4.49066	
4.49982	
4.55017	
4.59747	
4.62189	
4.58984	
4.5578	
4.54254	
4.52728	
4.5166	
4.50745	
4.48914	
4.49524	
4.54559	
4.59747	
4.62189	
4.61578	
4.6524	
4.71344	
4.71344	
4.69818	
4.75311	
4.80194	
4.77142	
4.70123	
4.61731	
4.54865	
4.50897	
4.45404	
4.43878	
4.4693	
4.46777	
4.47235	
4.45709	
4.42657	
4.42963	
4.45557	
4.46777	
4.48914	
4.48303	
4.48456	
4.49371	
4.5105	
4.54102	
4.61121	
4.63257	
4.62036	
4.63409	
4.70886	
4.77448	
4.79736	
4.76227	
4.70276	
4.6524	
4.60358	
4.56543	
4.51813	
4.47388	
4.44489	
4.42963	
4.42505	
4.43268	
4.45862	
4.47845	
4.49371	
4.51813	
4.52576	
4.52881	
4.54102	
4.55017	
4.54559	
4.5166	
4.50134	
4.50439	
4.54254	
4.56543	
4.60815	
4.6463	
4.66766	
4.67834	
4.68597	
4.68597	
4.67834	
4.6524	
4.61731	
4.58069	
4.5578	
4.54102	
4.52118	
4.50897	
4.50134	
4.50745	
4.49371	
4.48914	
4.49219	
4.50745	
4.53644	
4.5578	
4.56085	
4.56085	
4.55322	
4.53339	
4.5166	
4.50134	
4.51355	
4.63562	
4.72717	
4.8233	
4.88586	
4.8111	
4.74396	
4.66614	
4.61426	
4.55627	
4.50897	
4.48151	
4.45099	
4.43115	
4.4281	
4.4281	
4.43726	
4.44183	
4.45709	
4.48151	
4.49677	
4.52881	
4.52423	
4.52271	
4.61578	
4.72717	
4.75006	
4.72717	
4.67682	
4.62646	
4.58832	
4.57764	
4.5517	
4.5166	
4.50439	
4.51813	
4.54254	
4.55475	
4.5517	
4.55017	
4.55017	
4.54865	
4.54254	
4.52881	
4.53339	
4.54102	
4.54712	
4.53949	
4.53033	
4.57153	
4.61273	
4.61731	
4.63715	
4.63562	
4.61121	
4.61578	
4.64935	
4.6524	
4.63104	
4.59137	
4.56085	
4.52423	
4.50439	
4.5105	
4.50897	
4.53186	
4.55627	
4.53796	
4.52423	
4.54102	
4.5578	
4.63867	
4.67529	
4.66766	
4.66614	
4.6814	
4.70581	
4.71802	
4.68292	
4.67224	
4.63562	
4.59595	
4.5578	
4.51813	
4.48608	
4.47693	
4.46014	
4.45404	
4.44794	
4.44183	
4.44336	
4.49524	
4.55322	
4.54559	
4.52118	
4.51813	
4.51813	
4.51813	
4.51965	
4.53186	
4.54407	
4.54407	
4.53949	
4.55322	
4.55627	
4.56238	
4.5578	
4.56543	
4.57153	
4.6463	
4.73175	
4.74548	
4.7226	
4.71802	
4.69666	
4.64935	
4.60205	
4.56543	
4.53033	
4.51355	
4.5105	
4.50592	
4.50745	
4.55475	
4.57153	
4.58832	
4.60815	
4.59595	
4.62494	
4.63257	
4.6402	
4.66919	
4.7226	
4.73022	
4.70886	
4.65088	
4.63715	
4.63867	
4.61121	
4.57306	
4.52576	
4.48914	
4.48456	
4.47235	
4.46472	
4.44183	
4.43115	
4.45099	
4.48151	
4.52423	
4.52728	
4.52576	
4.5166	
4.50745	
4.49982	
4.49219	
4.49829	
4.54102	
4.56238	
4.55322	
4.61121	
4.65546	
4.68445	
4.70428	
4.69513	
4.71039	
4.73938	
4.77142	
4.7821	
4.74396	
4.69208	
4.63257	
4.57611	
4.53339	
4.50134	
4.49829	
4.50439	
4.52271	
4.53644	
4.52423	
4.50897	
4.50134	
4.50745	
4.50439	
4.51355	
4.51965	
4.5105	
4.53796	
4.60205	
4.69513	
4.70428	
4.6814	
4.66614	
4.76379	
4.81567	
4.79584	
4.69666	
4.63715	
4.57916	
4.51508	
4.47693	
4.48456	
4.53796	
4.55017	
4.49066	
4.44489	
4.44336	
4.45099	
4.4693	
4.46167	
4.4754	
4.48456	
4.50897	
4.52271	
4.54559	
4.57001	
4.5929	
4.61121	
4.61426	
4.60358	
4.58832	
4.57306	
4.57001	
4.56543	
4.55627	
4.54865	
4.54254	
4.54712	
4.5639	
4.57153	
4.57611	
4.58832	
4.59747	
4.58221	
4.56848	
4.55933	
4.5517	
4.55475	
4.56085	
4.55933	
4.56238	
4.58069	
4.62799	
4.64935	
4.66614	
4.71497	
4.74243	
4.7226	
4.70581	
4.73633	
4.76685	
4.76532	
4.77142	
4.7226	
4.65698	
4.61121	
4.57001	
4.51813	
4.47693	
4.44489	
4.42505	
4.39606	
4.37164	
4.35791	
4.38385	
4.44489	
4.48761	
4.49371	
4.51508	
4.52271	
4.54254	
4.5578	
4.62189	
4.67377	
4.68597	
4.71039	
4.71649	
4.70276	
4.68597	
4.66003	
4.62494	
4.60968	
4.60205	
4.58832	
4.5639	
4.54712	
4.57306	
4.62036	
4.67072	
4.69818	
4.72412	
4.7226	
4.70428	
4.73022	
4.71344	
4.67834	
4.6524	
4.67072	
4.64325	
4.59747	
4.57153	
4.5166	
4.49066	
4.50745	
4.54559	
4.55475	
4.54712	
4.54712	
4.57306	
4.59747	
4.58832	
4.57764	
4.60663	
4.61426	
4.58221	
4.55933	
4.55933	
4.5517	
4.53339	
4.52576	
4.50897	
4.49982	
4.51965	
4.56085	
4.5929	
4.61273	
4.60052	
4.60205	
4.63562	
4.68903	
4.74396	
4.78058	
4.84314	
4.85077	
4.82178	
4.8111	
4.79584	
4.75159	
4.6814	
4.62036	
4.60815	
4.57611	
4.52423	
4.4693	
4.4693	
4.49066	
4.48608	
4.48608	
4.48151	
4.48761	
4.48761	
4.49371	
4.49677	
4.50745	
4.52881	
4.56085	
4.62799	
4.63104	
4.61121	
4.60968	
4.60815	
4.60205	
4.59595	
4.5929	
4.60358	
4.61731	
4.63562	
4.65088	
4.66309	
4.67529	
4.69055	
4.69666	
4.6814	
4.6524	
4.63257	
4.63104	
4.58832	
4.57458	
4.60052	
4.67072	
4.78973	
4.80957	
4.74091	
4.68597	
4.64783	
4.62799	
4.62646	
4.61121	
4.60052	
4.6051	
4.69208	
4.71497	
4.73938	
4.73938	
4.71344	
4.68445	
4.65393	
4.64325	
4.63867	
4.60815	
4.57001	
4.53644	
4.52576	
4.52728	
4.54407	
4.56848	
4.54712	
4.52881	
4.57916	
4.65088	
4.70734	
4.75159	
4.82635	
4.8645	
4.89349	
5.01251	
4.9942	
4.93469	
4.86755	
4.77448	
4.69055	
4.62799	
4.55627	
4.50439	
4.47388	
4.47693	
4.49524	
4.49829	
4.47693	
4.46472	
4.4754	
4.47845	
4.49982	
4.54102	
4.59137	
4.63257	
4.69818	
4.71649	
4.71802	
4.73938	
4.74548	
4.71649	
4.68903	
4.69208	
4.71649	
4.70428	
4.67682	
4.64783	
4.61731	
4.60205	
4.59747	
4.5929	
4.60358	
4.60052	
4.60205	
4.62494	
4.63104	
4.61884	
4.61273	
4.61884	
4.63257	
4.64478	
4.66919	
4.69666	
4.71649	
4.73022	
4.7348	
4.73938	
4.7699	
4.7699	
4.76379	
4.74854	
4.70734	
4.67529	
4.63104	
4.58374	
4.58527	
4.59442	
4.57001	
4.55017	
4.57001	
4.58984	
4.60205	
4.63257	
4.6524	
4.67224	
4.67529	
4.66461	
4.67529	
4.69666	
4.69055	
4.69055	
4.66614	
4.64478	
4.62646	
4.65088	
4.7287	
4.8172	
4.80804	
4.84009	
4.89044	
4.90265	
4.87518	
4.83398	
4.77905	
4.70123	
4.62036	
4.58832	
4.57764	
4.5517	
4.53796	
4.50897	
4.49982	
4.51355	
4.53186	
4.54254	
4.55017	
4.58221	
4.63257	
4.66461	
4.71191	
4.81262	
4.84467	
4.82941	
4.80194	
4.76685	
4.7287	
4.68445	
4.6463	
4.61426	
4.59595	
4.58374	
4.55933	
4.55627	
4.55475	
4.54254	
4.55017	
4.56085	
4.58374	
4.58832	
4.61121	
4.64783	
4.66614	
4.63409	
4.63257	
4.67224	
4.72717	
4.75464	
4.74701	
4.76227	
4.77142	
4.73938	
4.69971	
4.68292	
4.69666	
4.71649	
4.6875	
4.68903	
4.70123	
4.69666	
4.69818	
4.66461	
4.65698	
4.65851	
4.65393	
4.63715	
4.63715	
4.61731	
4.59595	
4.60052	
4.61731	
4.62646	
4.64783	
4.66309	
4.67834	
4.68903	
4.6875	
4.71954	
4.79279	
4.80347	
4.7821	
4.74548	
4.70123	
4.67529	
4.65546	
4.64325	
4.64935	
4.6463	
4.63104	
4.61731	
4.61884	
4.6402	
4.6524	
4.70886	
4.75006	
4.75006	
4.71497	
4.67987	
4.6524	
4.64172	
4.6402	
4.63409	
4.61884	
4.61884	
4.62189	
4.62646	
4.63409	
4.6524	
4.68597	
4.77753	
4.85687	
4.98657	
4.99725	
5.02014	
4.98962	
4.96216	
4.87671	
4.79889	
4.71344	
4.6524	
4.59747	
4.53796	
4.49066	
4.46014	
4.48303	
4.50592	
4.53796	
4.56848	
4.5929	
4.64325	
4.67987	
4.68292	
4.66614	
4.6463	
4.63562	
4.63104	
4.62341	
4.62494	
4.61884	
4.61884	
4.63257	
4.64478	
4.69055	
4.71191	
4.73328	
4.76227	
4.77448	
4.75006	
4.72717	
4.71802	
4.73022	
4.74243	
4.7287	
4.70123	
4.67682	
4.6524	
4.64783	
4.65393	
4.66919	
4.67682	
4.67377	
4.66766	
4.66614	
4.66766	
4.66461	
4.65393	
4.6524	
4.65698	
4.66461	
4.66461	
4.66766	
4.67987	
4.6814	
4.68597	
4.70581	
4.71649	
4.71039	
4.71344	
4.71039	
4.71344	
4.70734	
4.69055	
4.67987	
4.67834	
4.67529	
4.6814	
4.67987	
4.68292	
4.71039	
4.75311	
4.85535	
4.91333	
4.89807	
4.87213	
4.82483	
4.76074	
4.73022	
4.70276	
4.64478	
4.63867	
4.59595	
4.57764	
4.57153	
4.57916	
4.62646	
4.71954	
4.82483	
4.83856	
4.8233	
4.79889	
4.80499	
4.80042	
4.75159	
4.68903	
4.63715	
4.61731	
4.61578	
4.58984	
4.57764	
4.56848	
4.59442	
4.62341	
4.63257	
4.63409	
4.6402	
4.64478	
4.66614	
4.71191	
4.7821	
4.77753	
4.78058	
4.80499	
4.84772	
4.84161	
4.8111	
4.776	
4.72717	
4.69208	
4.69971	
4.69666	
4.70123	
4.68903	
4.6875	
4.69818	
4.69513	
4.67529	
4.65088	
4.6524	
4.64478	
4.63867	
4.63409	
4.63104	
4.61731	
4.6051	
4.60358	
4.60358	
4.6051	
4.59747	
4.62189	
4.67834	
4.70886	
4.7226	
4.75311	
4.77905	
4.75922	
4.72717	
4.71649	
4.71039	
4.71954	
4.71039	
4.70886	
4.71802	
4.69513	
4.67987	
4.66309	
4.65698	
4.65851	
4.67834	
4.67682	
4.67072	
4.69666	
4.73633	
4.7287	
4.71497	
4.69818	
4.69208	
4.69818	
4.7287	
4.73022	
4.8645	
4.92249	
4.92706	
4.8996	
4.86298	
4.80804	
4.77295	
4.73022	
4.67682	
4.63715	
4.60052	
4.57153	
4.55475	
4.5578	
4.6051	
4.64478	
4.66766	
4.67834	
4.68903	
4.74243	
4.77905	
4.78516	
4.77142	
4.74701	
4.75464	
4.74701	
4.76532	
4.78668	
4.776	
4.73785	
4.72107	
4.70886	
4.67682	
4.66003	
4.66766	
4.65698	
4.64478	
4.64172	
4.64325	
4.64783	
4.6463	
4.60815	
4.6051	
4.62189	
4.65088	
4.66461	
4.69818	
4.73175	
4.7226	
4.73785	
4.7699	
4.7699	
4.75922	
4.73633	
4.71649	
4.71497	
4.69818	
4.67529	
4.66614	
4.66766	
4.66766	
4.68597	
4.72412	
4.7287	
4.71039	
4.70581	
4.73633	
4.77142	
4.76379	
4.78058	
4.7821	
4.81873	
4.81567	
4.79126	
4.76379	
4.75006	
4.74548	
4.7348	
4.70734	
4.67682	
4.6524	
4.6402	
4.66614	
4.67682	
4.65698	
4.65088	
4.65546	
4.63715	
4.62799	
4.62646	
4.65088	
4.70734	
4.7348	
4.8111	
4.89502	
4.9118	
4.93927	
4.9057	
4.79279	
4.72412	
4.68445	
4.64478	
4.60815	
4.58527	
4.58832	
4.61578	
4.62799	
4.63104	
4.64325	
4.66614	
4.6814	
4.69055	
4.69818	
4.69818	
4.69055	
4.6875	
4.66919	
4.65088	
4.63104	
4.62341	
4.63104	
4.63867	
4.6524	
4.65851	
4.67072	
4.69513	
4.70581	
4.71344	
4.72412	
4.76379	
4.76532	
4.75159	
4.73175	
4.72412	
4.74548	
4.76074	
4.8172	
4.84467	
4.8584	
4.84161	
4.80957	
4.78058	
4.75006	
4.71344	
4.6875	
4.66766	
4.6402	
4.59595	
4.5639	
4.5639	
4.56085	
4.56543	
4.64172	
4.75006	
4.82178	
4.87671	
4.92859	
4.89655	
4.87671	
4.90875	
4.88586	
4.84619	
4.82178	
4.76685	
4.71039	
4.66614	
4.61578	
4.60205	
4.58679	
4.58221	
4.58527	
4.58221	
4.60358	
4.61884	
4.66003	
4.73785	
4.77905	
4.81415	
4.81567	
4.83398	
4.81567	
4.83856	
4.82941	
4.78973	
4.7348	
4.7287	
4.70276	
4.65851	
4.63104	
4.61884	
4.5929	
4.58527	
4.58527	
4.64935	
4.70886	
4.78973	
4.82788	
4.80194	
4.77448	
4.74091	
4.71039	
4.69208	
4.66919	
4.64783	
4.63257	
4.61121	
4.66309	
4.69513	
4.71497	
4.71802	
4.70581	
4.69818	
4.69666	
4.69513	
4.68597	
4.66614	
4.63715	
4.64478	
4.6463	
4.66003	
4.69818	
4.69666	
4.67682	
4.67224	
4.67529	
4.67682	
4.69055	
4.68903	
4.67682	
4.66614	
4.6814	
4.69818	
4.71954	
4.72412	
4.71497	
4.73175	
4.776	
4.83398	
4.89807	
4.92249	
4.92401	
4.91943	
4.87671	
4.81415	
4.76227	
4.75159	
4.7287	
4.6875	
4.64325	
4.59442	
4.5578	
4.55627	
4.53949	
4.55627	
4.58832	
4.60358	
4.61273	
4.62494	
4.64325	
4.65088	
4.66003	
4.68903	
4.71344	
4.78516	
4.84161	
4.86908	
4.86298	
4.82788	
4.80499	
4.79889	
4.77905	
4.77448	
4.75464	
4.71039	
4.67682	
4.64783	
4.63715	
4.62494	
4.63257	
4.63104	
4.6402	
4.64935	
4.65546	
4.65698	
4.66614	
4.68292	
4.6875	
4.68445	
4.67377	
4.67682	
4.67682	
4.69513	
4.70123	
4.69513	
4.68597	
4.6814	
4.71191	
4.73633	
4.75616	
4.8172	
4.85992	
4.87061	
4.86145	
4.82635	
4.76685	
4.73938	
4.71649	
4.68445	
4.64478	
4.65088	
4.67987	
4.65546	
4.69208	
4.76074	
4.8233	
4.82788	
4.8111	
4.80042	
4.776	
4.73022	
4.67834	
4.6463	
4.62341	
4.58374	
4.5639	
4.57611	
4.60815	
4.63409	
4.6463	
4.62341	
4.63104	
4.6463	
4.67224	
4.70276	
4.71954	
4.73938	
4.79736	
4.80804	
4.80804	
4.80042	
4.78516	
4.82483	
4.84314	
4.84009	
4.8111	
4.76379	
4.74091	
4.70734	
4.66614	
4.66614	
4.62494	
4.58679	
4.56848	
4.57306	
4.59137	
4.60358	
4.62036	
4.66919	
4.73938	
4.776	
4.76532	
4.74091	
4.7226	
4.71191	
4.74701	
4.76379	
4.776	
4.75616	
4.7348	
4.73785	
4.73175	
4.71649	
4.69666	
4.67224	
4.65851	
4.65851	
4.66766	
4.66614	
4.66003	
4.67224	
4.69055	
4.69666	
4.68292	
4.68292	
4.69055	
4.69971	
4.70276	
4.70428	
4.69818	
4.69666	
4.68903	
4.68903	
4.68597	
4.6875	
4.70276	
4.76837	
4.82178	
4.84772	
4.84772	
4.82178	
4.83551	
4.82788	
4.79431	
4.77142	
4.76379	
4.77753	
4.8172	
4.79279	
4.74091	
4.73022	
4.71344	
4.66919	
4.64325	
4.62341	
4.61273	
4.60052	
4.58221	
4.55627	
4.54559	
4.57764	
4.59442	
4.60358	
4.62036	
4.6524	
4.65088	
4.6814	
4.70734	
4.71344	
4.72107	
4.73633	
4.71191	
4.70581	
4.70428	
4.69055	
4.69666	
4.70581	
4.7226	
4.72717	
4.73328	
4.71954	
4.70123	
4.68597	
4.67529	
4.67377	
4.6814	
4.69055	
4.71344	
4.74701	
4.74548	
4.73938	
4.7287	
4.80652	
4.83246	
4.83246	
4.82483	
4.80194	
4.77295	
4.77448	
4.76837	
4.7226	
4.70123	
4.6875	
4.66614	
4.6463	
4.63104	
4.60052	
4.59442	
4.61273	
4.62646	
4.64783	
4.65546	
4.65698	
4.66003	
4.65851	
4.67987	
4.6875	
4.69971	
4.71344	
4.72107	
4.7226	
4.71191	
4.69666	
4.68597	
4.67377	
4.65088	
4.62494	
4.62036	
4.63257	
4.66919	
4.67987	
4.65698	
4.67224	
4.70734	
4.74091	
4.70886	
4.68597	
4.70276	
4.73785	
4.74091	
4.7287	
4.74854	
4.76227	
4.77753	
4.78668	
4.82178	
4.82941	
4.8111	
4.79431	
4.77753	
4.81262	
4.86603	
4.84772	
4.80804	
4.74091	
4.6875	
4.64935	
4.62036	
4.58527	
4.55933	
4.5578	
4.58984	
4.61578	
4.61578	
4.61273	
4.61426	
4.63409	
4.65851	
4.67987	
4.68292	
4.70123	
4.72107	
4.71497	
4.72107	
4.74396	
4.74854	
4.74701	
4.76685	
4.84619	
4.85382	
4.82941	
4.79736	
4.7699	
4.72717	
4.68445	
4.65393	
4.61731	
4.59595	
4.58374	
4.58984	
4.60052	
4.61578	
4.6402	
4.66309	
4.67682	
4.70581	
4.75311	
4.77905	
4.80347	
4.81415	
4.80804	
4.79736	
4.79126	
4.76074	
4.71954	
4.68292	
4.63715	
4.60968	
4.59595	
4.63409	
4.63715	
4.65546	
4.66766	
4.69971	
4.6875	
4.67529	
4.66309	
4.65851	
4.65698	
4.64935	
4.65851	
4.69208	
4.73785	
4.80804	
4.83246	
4.87671	
4.89197	
4.8645	
4.86603	
4.88281	
4.89197	
4.84924	
4.80652	
4.76227	
4.70581	
4.65393	
4.6051	
4.58069	
4.57764	
4.59747	
4.59747	
4.61731	
4.64325	
4.65393	
4.65546	
4.64478	
4.64325	
4.66461	
4.66309	
4.68903	
4.7348	
4.74701	
4.7699	
4.78363	
4.75006	
4.73175	
4.71802	
4.70123	
4.67224	
4.65393	
4.64935	
4.65088	
4.65393	
4.64783	
4.6463	
4.66461	
4.68292	
4.67987	
4.67377	
4.67834	
4.69513	
4.70734	
4.70581	
4.70276	
4.70123	
4.70886	
4.70123	
4.71191	
4.7226	
4.73328	
4.73785	
4.7226	
4.71954	
4.71802	
4.72412	
4.71497	
4.70276	
4.70276	
4.70123	
4.70581	
4.71497	
4.76379	
4.76685	
4.75311	
4.74854	
4.75922	
4.7287	
4.70123	
4.69055	
4.69055	
4.6875	
4.68292	
4.67987	
4.68445	
4.68597	
4.67987	
4.72107	
4.76837	
4.83398	
4.90417	
4.93011	
4.96063	
4.96826	
4.97589	
4.96674	
4.91028	
4.85382	
4.83093	
4.77753	
4.71039	
4.6402	
4.60052	
4.56085	
4.52881	
4.52271	
4.53033	
4.55475	
4.57611	
4.60968	
4.64172	
4.65851	
4.67529	
4.69208	
4.70123	
4.74396	
4.74548	
4.7287	
4.77295	
4.82635	
4.85535	
4.83398	
4.8111	
4.79584	
4.76837	
4.72107	
4.69055	
4.66614	
4.6463	
4.63715	
4.62189	
4.62341	
4.63257	
4.65546	
4.68445	
4.70123	
4.6875	
4.69666	
4.71344	
4.72107	
4.72717	
4.73785	
4.76379	
4.7699	
4.76685	
4.75922	
4.75006	
4.75311	
4.75006	
4.74396	
4.73328	
4.71802	
4.70428	
4.67834	
4.67834	
4.68903	
4.69666	
4.70276	
4.69666	
4.73785	
4.78363	
4.79736	
4.81415	
4.81415	
4.79431	
4.7699	
4.75616	
4.74243	
4.71649	
4.73175	
4.78668	
4.83093	
4.82788	
4.81262	
4.82178	
4.82635	
4.80957	
4.75616	
4.71191	
4.70734	
4.68445	
4.65393	
4.63562	
4.63409	
4.65088	
4.68292	
4.72107	
4.74091	
4.73938	
4.73175	
4.71649	
4.69666	
4.68597	
4.69055	
4.70123	
4.71649	
4.71649	
4.69208	
4.70428	
4.71954	
4.7287	
4.72717	
4.72412	
4.83093	
4.90723	
4.93622	
4.91943	
4.88892	
4.86603	
4.81873	
4.77753	
4.74396	
4.70123	
4.67072	
4.66614	
4.6402	
4.64935	
4.64935	
4.65546	
4.66766	
4.71802	
4.74091	
4.74548	
4.79584	
4.84772	
4.87976	
4.89197	
4.84924	
4.85077	
4.82788	
4.79431	
4.76379	
4.73022	
4.70886	
4.71954	
4.71649	
4.70428	
4.69666	
4.69818	
4.69513	
4.69513	
4.68903	
4.69055	
4.68903	
4.71039	
4.76685	
4.78973	
4.81567	
4.82788	
4.82178	
4.79889	
4.77295	
4.74701	
4.71344	
4.69208	
4.67377	
4.65851	
4.64478	
4.66003	
4.67224	
4.6875	
4.71039	
4.71039	
4.71649	
4.75616	
4.77295	
4.8111	
4.82788	
4.8233	
4.80042	
4.7821	
4.76532	
4.76379	
4.75464	
4.74854	
4.74091	
4.72412	
4.72412	
4.70734	
4.69055	
4.70734	
4.73022	
4.72717	
4.71802	
4.70886	
4.69055	
4.67682	
4.66003	
4.68292	
4.7287	
4.75311	
4.73938	
4.73633	
4.75311	
4.79279	
4.81415	
4.86298	
4.86145	
4.8645	
4.85535	
4.81415	
4.78058	
4.74701	
4.71802	
4.72412	
4.71649	
4.70276	
4.70123	
4.6875	
4.67377	
4.67529	
4.6875	
4.69208	
4.70581	
4.71649	
4.71497	
4.7348	
4.77448	
4.78973	
4.80652	
4.81262	
4.80652	
4.78973	
4.7699	
4.77142	
4.74548	
4.71497	
4.72412	
4.71802	
4.70276	
4.70734	
4.73022	
4.72107	
4.71649	
4.70276	
4.69818	
4.71802	
4.75006	
4.78058	
4.85992	
4.91791	
4.90112	
4.87976	
4.89197	
4.87976	
4.90417	
4.95758	
4.93164	
4.86908	
4.79279	
4.74548	
4.72412	
4.69666	
4.6463	
4.61426	
4.56848	
4.55017	
4.54254	
4.55322	
4.56543	
4.60815	
4.66461	
4.67987	
4.69513	
4.7226	
4.77753	
4.8233	
4.82941	
4.79889	
4.76837	
4.73175	
4.70428	
4.70734	
4.71039	
4.68597	
4.67529	
4.69513	
4.68597	
4.66614	
4.65698	
4.67834	
4.68597	
4.73328	
4.73175	
4.74396	
4.75464	
4.74243	
4.7348	
4.72412	
4.70581	
4.69055	
4.6875	
4.69055	
4.68445	
4.66919	
4.65851	
4.70123	
4.72717	
4.73175	
4.76227	
4.79889	
4.81262	
4.79584	
4.77448	
4.74854	
4.75159	
4.76837	
4.75922	
4.74854	
4.7348	
4.70886	
4.6814	
4.66919	
4.6814	
4.68597	
4.70276	
4.71039	
4.70123	
4.69055	
4.66919	
4.66919	
4.67987	
4.6875	
4.70886	
4.71954	
4.75922	
4.74396	
4.73022	
4.71039	
4.71954	
4.70886	
4.72717	
4.73633	
4.73785	
4.72412	
4.71344	
4.70581	
4.71954	
4.73175	
4.73785	
4.73785	
4.7348	
4.7226	
4.69055	
4.66309	
4.64325	
4.63562	
4.63562	
4.63257	
4.63715	
4.64325	
4.64783	
4.63715	
4.6463	
4.65546	
4.66309	
4.74701	
4.81873	
4.87213	
4.89655	
4.84467	
4.79889	
4.76227	
4.72412	
4.69208	
4.65698	
4.64172	
4.63562	
4.62799	
4.63715	
4.65851	
4.65393	
4.6524	
4.65088	
4.64935	
4.65393	
4.65851	
4.66614	
4.67072	
4.68292	
4.67682	
4.66309	
4.65088	
4.6524	
4.66919	
4.69208	
4.69971	
4.69208	
4.69055	
4.69818	
4.69513	
4.67987	
4.69971	
4.71039	
4.73633	
4.7287	
4.7287	
4.71039	
4.69666	
4.67834	
4.68597	
4.69971	
4.70886	
4.70276	
4.68292	
4.68445	
4.67529	
4.65698	
4.66309	
4.67987	
4.68597	
4.6814	
4.70123	
4.72717	
4.72107	
4.70428	
4.69818	
4.71039	
4.74243	
4.7348	
4.71039	
4.69513	
4.69055	
4.69055	
4.70123	
4.71497	
4.68445	
4.65698	
4.6402	
4.62189	
4.61578	
4.61731	
4.63562	
4.67529	
4.70428	
4.70428	
4.68292	
4.66003	
4.65088	
4.65088	
4.65851	
4.66614	
4.69208	
4.70886	
4.70123	
4.71802	
4.73022	
4.76074	
4.81873	
4.85535	
4.84924	
4.82788	
4.80042	
4.76227	
4.72412	
4.6875	
4.66919	
4.6463	
4.61884	
4.60663	
4.57001	
4.60052	
4.64172	
4.66003	
4.6814	
4.7287	
4.74701	
4.74091	
4.7226	
4.70581	
4.69971	
4.6814	
4.65851	
4.64172	
4.62189	
4.61121	
4.63562	
4.71802	
4.77753	
4.89349	
4.93927	
4.93622	
4.90417	
4.85077	
4.79431	
4.74548	
4.68445	
4.62341	
4.56543	
4.51202	
4.47235	
4.48761	
4.50592	
4.53644	
4.5517	
4.58069	
4.60052	
4.62799	
4.65088	
4.65698	
4.66614	
4.66919	
4.65851	
4.64478	
4.64172	
4.64478	
4.63867	
4.62494	
4.63257	
4.63715	
4.64325	
4.62036	
4.60205	
4.60358	
4.61731	
4.63867	
4.63715	
4.63257	
4.62494	
4.62189	
4.6463	
4.67072	
4.68903	
4.6814	
4.67072	
4.67529	
4.68445	
4.68445	
4.67529	
4.6814	
4.67682	
4.66003	
4.66003	
4.66461	
4.66461	
4.6875	
4.70734	
4.71802	
4.71497	
4.69513	
4.67224	
4.64172	
4.62189	
4.63104	
4.64478	
4.70123	
4.71497	
4.6875	
4.67224	
4.6875	
4.70734	
4.69818	
4.67682	
4.6524	
4.64478	
4.65698	
4.64325	
4.63562	
4.62341	
4.61121	
4.60358	
4.60205	
4.60358	
4.61731	
4.63715	
4.64935	
4.65088	
4.66919	
4.66919	
4.67987	
4.72412	
4.73328	
4.74396	
4.77295	
4.80347	
4.80499	
4.79431	
4.77448	
4.74854	
4.71191	
4.66919	
4.6402	
4.61578	
4.59442	
4.58069	
4.57306	
4.57153	
4.56848	
4.56238	
4.5639	
4.57153	
4.58069	
4.58984	
4.5929	
4.60968	
4.61731	
4.62341	
4.63867	
4.65088	
4.67224	
4.68597	
4.67987	
4.6524	
4.64783	
4.64478	
4.6402	
4.64325	
4.63562	
4.61426	
4.60663	
4.59595	
4.57916	
4.64478	
4.72412	
4.76379	
4.79584	
4.80194	
4.776	
4.74091	
4.69666	
4.64935	
4.61731	
4.5929	
4.57611	
4.56238	
4.58527	
4.57916	
4.57458	
4.56848	
4.57916	
4.61884	
4.62189	
4.61578	
4.61426	
4.61121	
4.62036	
4.63562	
4.65546	
4.66461	
4.67072	
4.66461	
4.6524	
4.65393	
4.64935	
4.6524	
4.66614	
4.66614	
4.65698	
4.64478	
4.66003	
4.6463	
4.62036	
4.59747	
4.59595	
4.60968	
4.63409	
4.67072	
4.6875	
4.66919	
4.6463	
4.62189	
4.61121	
4.60358	
4.60358	
4.61121	
4.61273	
4.60663	
4.58679	
4.58221	
4.60052	
4.59595	
4.62341	
4.69666	
4.74701	
4.71954	
4.68903	
4.66309	
4.64325	
4.64172	
4.64325	
4.63409	
4.62494	
4.62341	
4.62799	
4.63409	
4.62341	
4.61578	
4.60358	
4.61121	
4.62341	
4.62646	
4.63257	
4.6814	
4.69513	
4.68292	
4.66461	
4.6402	
4.61121	
4.61731	
4.6402	
4.64172	
4.66003	
4.65088	
4.63562	
4.60358	
4.56848	
4.56085	
4.59137	
4.61731	
4.62646	
4.66461	
4.71954	
4.78973	
4.80804	
4.7821	
4.776	
4.74854	
4.70886	
4.67377	
4.63409	
4.58679	
4.55475	
4.52728	
4.50592	
4.49677	
4.51355	
4.52728	
4.53186	
4.52881	
4.53033	
4.53949	
4.53644	
4.54102	
4.53033	
4.52271	
4.57458	
4.61731	
4.62341	
4.62036	
4.60663	
4.59747	
4.56848	
4.54559	
4.53644	
4.54559	
4.58069	
4.62799	
4.66766	
4.64172	
4.61884	
4.63257	
4.62646	
4.62494	
4.62189	
4.61426	
4.61121	
4.59595	
4.58374	
4.58527	
4.61121	
4.60815	
4.60663	
4.64325	
4.66003	
4.65851	
4.6524	
4.65851	
4.6524	
4.66614	
4.67377	
4.67529	
4.69971	
4.70734	
4.74548	
4.74396	
4.71497	
4.6814	
4.6875	
4.67377	
4.64478	
4.62646	
4.60663	
4.6051	
4.77448	
4.94385	
4.98962	
4.96521	
4.88129	
4.78516	
4.71649	
4.6463	
4.57916	
4.51202	
4.45862	
4.41132	
4.36401	
4.31824	
4.32587	
4.3457	
4.36554	
4.40063	
4.42963	
4.47235	
4.48914	
4.50745	
4.50439	
4.50439	
4.49829	
4.49524	
4.49219	
4.49524	
4.51965	
4.54407	
4.57306	
4.55933	
4.56848	
4.58374	
4.62036	
4.61731	
4.60815	
4.60968	
4.6051	
4.58527	
4.58374	
4.57764	
4.5929	
4.55933	
4.52576	
4.53796	
4.55475	
4.54254	
4.53949	
4.56848	
4.58832	
4.61578	
4.62646	
4.6402	
4.67224	
4.67987	
4.64935	
4.61426	
4.58679	
4.58069	
4.56543	
4.54254	
4.51813	
4.5105	
4.5105	
4.52728	
4.57306	
4.58221	
4.57916	
4.56848	
4.56238	
4.54865	
4.53949	
4.53033	
4.52423	
4.52118	
4.52423	
4.52576	
4.52271	
4.52423	
4.52271	
4.51965	
4.51965	
4.51965	
4.52118	
4.52271	
4.53339	
4.54254	
4.54559	
4.57306	
4.60052	
4.58527	
4.57764	
4.56085	
4.57306	
4.61884	
4.62799	
4.61578	
4.60205	
4.58221	
4.55627	
4.52423	
4.50897	
4.50439	
4.49524	
4.49219	
4.47998	
4.4754	
4.47235	
4.47998	
4.48303	
4.48608	
4.47845	
4.48151	
4.48914	
4.49677	
4.48761	
4.49066	
4.48456	
4.49829	
4.49982	
4.49982	
4.51202	
4.53644	
4.5578	
4.54712	
4.53796	
4.52881	
4.53033	
4.52423	
4.52271	
4.51965	
4.52423	
4.52271	
4.5166	
4.5166	
4.5166	
4.51355	
4.51202	
4.50592	
4.49982	
4.49524	
4.50134	
4.50592	
4.52271	
4.52423	
4.51355	
4.50897	
4.50745	
4.50439	
4.49829	
4.49524	
4.49219	
4.49371	
4.49219	
4.49371	
4.49066	
4.48456	
4.48761	
4.49066	
4.48914	
4.49371	
4.49524	
4.50439	
4.49829	
4.49982	
4.49371	
4.48914	
4.49219	
4.49066	
4.48914	
4.48761	
4.47845	
4.46472	
4.45709	
4.44946	
4.44946	
4.45709	
4.44946	
4.47693	
4.52271	
4.54865	
4.53033	
4.49219	
4.47235	
4.46167	
4.45099	
4.45251	
4.4693	
4.50439	
4.53186	
4.56543	
4.5517	
4.53033	
4.52118	
4.51813	
4.51202	
4.50745	
4.50897	
4.49066	
4.47998	
4.47998	
4.47388	
4.46777	
4.49066	
4.49677	
4.51202	
4.49677	
4.47845	
4.47388	
4.48608	
4.51202	
4.51813	
4.50134	
4.49982	
4.50745	
4.51965	
4.52576	
4.51355	
4.51508	
4.51202	
4.50745	
4.51965	
4.52423	
4.51355	
4.51965	
4.50897	
4.48456	
4.46167	
4.44336	
4.45404	
4.46777	
4.49066	
4.47235	
4.45862	
4.44946	
4.4281	
4.42047	
4.422	
4.41589	
4.43726	
4.46167	
4.49982	
4.51508	
4.52728	
4.53644	
4.51965	
4.51508	
4.51202	
4.5105	
4.53186	
4.53186	
4.52118	
4.50592	
4.49829	
4.49371	
4.47998	
4.4693	
4.45251	
4.44489	
4.43573	
4.44946	
4.4693	
4.48151	
4.47235	
4.45557	
4.44183	
4.4342	
4.44336	
4.43115	
4.43268	
4.44946	
4.47693	
4.47845	
4.46472	
4.44946	
4.44946	
4.45099	
4.44794	
4.44489	
4.45099	
4.46167	
4.4693	
4.4754	
4.4754	
4.4754	
4.47998	
4.46625	
4.45709	
4.45099	
4.44794	
4.44336	
4.43726	
4.45099	
4.45099	
4.44489	
4.44794	
4.45709	
4.45404	
4.45099	
4.45709	
4.46625	
4.47693	
4.46777	
4.47693	
4.49524	
4.49677	
4.48456	
4.47235	
4.46167	
4.46167	
4.48761	
4.48608	
4.46472	
4.45862	
4.44946	
4.44489	
4.44336	
4.44183	
4.44336	
4.43726	
4.4281	
4.42352	
4.42505	
4.4342	
4.45404	
4.45709	
4.44794	
4.44946	
4.46167	
4.47845	
4.47693	
4.46167	
4.44946	
4.46625	
4.48151	
4.48761	
4.47845	
4.47235	
4.45557	
4.44946	
4.44794	
4.45557	
4.45557	
4.43268	
4.41284	
4.39301	
4.37317	
4.36401	
4.37469	
4.41437	
4.45862	
4.48914	
4.49371	
4.48761	
4.48151	
4.48151	
4.50439	
4.49524	
4.48608	
4.48303	
4.49066	
4.48761	
4.49219	
4.48303	
4.45862	
4.4281	
4.41437	
4.42505	
4.44489	
4.45557	
4.43573	
4.41437	
4.41589	
4.40216	
4.38232	
4.39148	
4.41589	
4.47998	
4.50745	
4.5105	
4.50592	
4.49371	
4.47845	
4.4632	
4.48914	
4.48608	
4.49677	
4.50439	
4.48456	
4.45404	
4.43268	
4.40369	
4.38385	
4.36707	
4.35486	
4.34875	
4.32892	
4.32739	
4.31976	
4.32892	
4.34265	
4.36096	
4.40369	
4.45099	
4.48914	
4.47693	
4.44183	
4.41589	
4.40063	
4.40369	
4.41742	
4.41132	
4.42352	
4.42047	
4.42047	
4.41589	
4.39148	
4.38232	
4.37469	
4.37927	
4.422	
4.44183	
4.45404	
4.46167	
4.44946	
4.43573	
4.42352	
4.41284	
4.41132	
4.44336	
4.42963	
4.41132	
4.40063	
4.38232	
4.37927	
4.38385	
4.39301	
4.40369	
4.42047	
4.422	
4.42352	
4.42963	
4.43115	
4.41895	
4.41284	
4.40063	
4.40063	
4.39911	
4.39758	
4.39758	
4.40369	
4.40369	
4.40216	
4.39758	
4.40216	
4.39453	
4.38995	
4.38385	
4.37469	
4.37775	
4.38232	
4.39148	
4.39911	
4.41284	
4.40979	
4.422	
4.43726	
4.46777	
4.48456	
4.48151	
4.46014	
4.43115	
4.422	
4.41437	
4.40674	
4.40063	
4.38385	
4.37317	
4.36096	
4.35333	
4.34875	
4.38538	
4.44183	
4.4281	
4.41132	
4.41742	
4.40369	
4.41589	
4.422	
4.42657	
4.43726	
4.43726	
4.42505	
4.44336	
4.43115	
4.42657	
4.41742	
4.41284	
4.422	
4.43115	
4.43115	
4.41895	
4.40369	
4.41284	
4.40979	
4.39758	
4.39453	
4.38843	
4.38995	
4.39148	
4.39301	
4.40521	
4.42047	
4.43115	
4.43115	
4.43268	
4.4342	
4.42352	
4.42047	
4.42047	
4.42047	
4.40063	
4.36707	
4.35028	
4.33502	
4.32892	
4.33655	
4.34723	
4.36707	
4.37469	
4.39606	
4.44794	
4.4754	
4.48303	
4.45099	
4.422	
4.39758	
4.38538	
4.38538	
4.39453	
4.39301	
4.41284	
4.40979	
4.39606	
4.38385	
4.37317	
4.38385	
4.40369	
4.39911	
4.40674	
4.39758	
4.39148	
4.38538	
4.36859	
4.34875	
4.33502	
4.32739	
4.32434	
4.33044	
4.35638	
4.39453	
4.41589	
4.40063	
4.38385	
4.37469	
4.3808	
4.3808	
4.36249	
4.35638	
4.35638	
4.35028	
4.36554	
4.36554	
4.38538	
4.40979	
4.43115	
4.4281	
4.41742	
4.40979	
4.40369	
4.38843	
4.3808	
4.37469	
4.35791	
4.33502	
4.32129	
4.31213	
4.3045	
4.30298	
4.29077	
4.29535	
4.35944	
4.41132	
4.40063	
4.40979	
4.3869	
4.36554	
4.36707	
4.38232	
4.40521	
4.40979	
4.40979	
4.39758	
4.38538	
4.37317	
4.36859	
4.37164	
4.36401	
4.35638	
4.35181	
4.34723	
4.34875	
4.35028	
4.35791	
4.36401	
4.37775	
4.37469	
4.36096	
4.35181	
4.35333	
4.36096	
4.35944	
4.35028	
4.35486	
4.36554	
4.35638	
4.34875	
4.35944	
4.35944	
4.36554	
4.36401	
4.35486	
4.36554	
4.39148	
4.39911	
4.39758	
4.40674	
4.39911	
4.40369	
4.40369	
4.38232	
4.36554	
4.39301	
4.40674	
4.41284	
4.40521	
4.40674	
4.37927	
4.38995	
4.39606	
4.40521	
4.39148	
4.35181	
4.3335	
4.32892	
4.30298	
4.27704	
4.26636	
4.26178	
4.26788	
4.26178	
4.25568	
4.26025	
4.27094	
4.28925	
4.31061	
4.31824	
4.29688	
4.2923	
4.28925	
4.31519	
4.34875	
4.39911	
4.39148	
4.37317	
4.36096	
4.35333	
4.35028	
4.33807	
4.33197	
4.32434	
4.31519	
4.30756	
4.30603	
4.29688	
4.28314	
4.27094	
4.26331	
4.26788	
4.27856	
4.28619	
4.28925	
4.29077	
4.3045	
4.32129	
4.32739	
4.32739	
4.30908	
4.29382	
4.30603	
4.33807	
4.37469	
4.40521	
4.43878	
4.43115	
4.40063	
4.35791	
4.31519	
4.28619	
4.26483	
4.24194	
4.23737	
4.26788	
4.29535	
4.32587	
4.31824	
4.31061	
4.31976	
4.31976	
4.30756	
4.32739	
4.35638	
4.3869	
4.41132	
4.41742	
4.42505	
4.40979	
4.38385	
4.36554	
4.34265	
4.31824	
4.2923	
4.28314	
4.28009	
4.26788	
4.245	
4.22058	
4.216	
4.23737	
4.23889	
4.23737	
4.24194	
4.24042	
4.245	
4.25262	
4.26178	
4.29077	
4.29382	
4.2923	
4.30603	
4.32892	
4.32892	
4.32281	
4.33044	
4.32587	
4.31976	
4.3045	
4.29077	
4.28619	
4.27246	
4.27399	
4.27399	
4.27246	
4.26178	
4.25415	
4.23737	
4.25568	
4.30603	
4.30908	
4.27856	
4.28467	
4.2923	
4.2923	
4.28772	
4.26941	
4.26788	
4.26941	
4.27856	
4.28925	
4.29535	
4.30603	
4.30603	
4.29688	
4.2923	
4.28925	
4.28772	
4.28619	
4.28619	
4.28009	
4.27246	
4.26025	
4.2572	
4.245	
4.24042	
4.24194	
4.26331	
4.27551	
4.29077	
4.29382	
4.30145	
4.29382	
4.27856	
4.28467	
4.2984	
4.2923	
4.28925	
4.28009	
4.27094	
4.26788	
4.26636	
4.26941	
4.26025	
4.245	
4.21906	
4.21143	
4.19464	
4.18854	
4.19312	
4.2511	
4.32739	
4.34875	
4.31671	
4.29077	
4.28619	
4.29382	
4.3045	
4.29993	
4.28772	
4.27704	
4.28314	
4.30603	
4.30756	
4.28467	
4.27246	
4.27704	
4.27399	
4.26178	
4.25568	
4.26178	
4.27094	
4.25568	
4.23737	
4.24652	
4.24194	
4.24194	
4.25262	
4.2511	
4.26941	
4.30603	
4.30603	
4.29077	
4.27704	
4.26941	
4.26636	
4.28314	
4.31213	
4.3045	
4.30145	
4.29382	
4.29077	
4.27399	
4.2511	
4.23889	
4.23584	
4.23279	
4.23584	
4.2511	
4.26941	
4.26636	
4.245	
4.23737	
4.23584	
4.23431	
4.22668	
4.22516	
4.21295	
4.20837	
4.21295	
4.21295	
4.23431	
4.27704	
4.2984	
4.29077	
4.26483	
4.25568	
4.26178	
4.27704	
4.29688	
4.29993	
4.29382	
4.27551	
4.2572	
4.25568	
4.26636	
4.27551	
4.25415	
4.23889	
4.23889	
4.22821	
4.22211	
4.22974	
4.22668	
4.22821	
4.21295	
4.20532	
4.19922	
4.19312	
4.19922	
4.22516	
4.24805	
4.24652	
4.23584	
4.24042	
4.27094	
4.28009	
4.26941	
4.2511	
4.26178	
4.26941	
4.28314	
4.30756	
4.31671	
4.31671	
4.31976	
4.28925	
4.27856	
4.26788	
4.25568	
4.23889	
4.22668	
4.22516	
4.21906	
4.216	
4.2099	
4.216	
4.21906	
4.22211	
4.22821	
4.24347	
4.24042	
4.22974	
4.22211	
4.22363	
4.23431	
4.24042	
4.22974	
4.22821	
4.21295	
4.22363	
4.23584	
4.24194	
4.23889	
4.23584	
4.25568	
4.26178	
4.24042	
4.23126	
4.216	
4.20227	
4.19464	
4.19769	
4.20074	
4.20532	
4.22821	
4.26331	
4.26178	
4.25415	
4.245	
4.25262	
4.26025	
4.27399	
4.26636	
4.26178	
4.26331	
4.25568	
4.25262	
4.26178	
4.24805	
4.23126	
4.21906	
4.21906	
4.216	
4.20532	
4.20074	
4.20685	
4.245	
4.27551	
4.23584	
4.20837	
4.20074	
4.18396	
4.19922	
4.23279	
4.24194	
4.2572	
4.21906	
4.20532	
4.22211	
4.216	
4.22363	
4.22516	
4.21448	
4.19769	
4.19769	
4.2038	
4.21295	
4.20837	
4.20532	
4.20837	
4.24042	
4.23737	
4.22668	
4.21906	
4.20685	
4.2099	
4.216	
4.21295	
4.19312	
4.19159	
4.19159	
4.2038	
4.2038	
4.19006	
4.19159	
4.20837	
4.21448	
4.22668	
4.23584	
4.22668	
4.22058	
4.22363	
4.23279	
4.23737	
4.23737	
4.23279	
4.22363	
4.20837	
4.20685	
4.21143	
4.20074	
4.20227	
4.21448	
4.216	
4.18091	
4.15649	
4.15955	
4.17023	
4.18701	
4.20837	
4.22516	
4.23737	
4.245	
4.23889	
4.22821	
4.22058	
4.22363	
4.22363	
4.19922	
4.18091	
4.1687	
4.18854	
4.19922	
4.19159	
4.20227	
4.22211	
4.245	
4.24652	
4.23737	
4.22668	
4.22363	
4.21295	
4.21143	
4.22516	
4.23584	
4.22516	
4.22058	
4.22211	
4.22363	
4.21906	
4.21143	
4.22058	
4.21448	
4.20532	
4.19922	
4.20227	
4.19159	
4.18243	
4.18091	
4.19922	
4.20227	
4.22516	
4.20685	
4.20227	
4.19922	
4.21906	
4.2038	
4.19464	
4.19159	
4.20685	
4.21906	
4.20227	
4.19769	
4.19617	
4.19312	
4.20074	
4.22974	
4.27704	
4.28772	
4.25415	
4.22821	
4.22058	
4.19769	
4.18091	
4.17786	
4.18091	
4.18243	
4.17328	
4.1748	
4.18701	
4.19769	
4.18854	
4.18854	
4.19312	
4.19159	
4.18854	
4.1748	
4.17938	
4.18243	
4.18396	
4.18091	
4.19312	
4.20532	
4.19464	
4.19769	
4.19006	
4.19617	
4.19312	
4.18854	
4.19159	
4.19006	
4.18243	
4.17328	
4.17633	
4.17786	
4.1687	
4.1748	
4.19312	
4.19312	
4.17938	
4.16412	
4.16565	
4.17633	
4.18091	
4.18701	
4.19159	
4.22516	
4.21143	
4.18854	
4.19464	
4.20532	
4.19312	
4.19159	
4.18701	
4.1748	
4.16412	
4.15802	
4.17328	
4.20074	
4.19922	
4.1687	
4.17023	
4.16718	
4.15649	
4.14734	
4.13818	
4.15192	
4.15344	
4.15649	
4.15649	
4.16412	
4.17938	
4.18396	
4.18243	
4.17938	
4.17175	
4.17023	
4.15955	
4.15344	
4.14734	
4.15344	
4.15344	
4.16107	
4.1687	
4.19006	
4.19769	
4.19769	
4.19617	
4.18701	
4.17938	
4.18091	
4.17023	
4.18396	
4.18396	
4.16718	
4.15802	
4.1626	
4.17023	
4.1748	
4.17938	
4.19006	
4.19006	
4.18091	
4.17328	
4.17633	
4.17938	
4.19006	
4.18854	
4.18243	
4.19159	
4.18396	
4.17633	
4.17023	
4.1687	
4.18396	
4.18396	
4.1687	
4.17023	
4.18091	
4.17633	
4.16565	
4.15802	
4.14429	
4.13818	
4.13818	
4.13513	
4.13055	
4.13055	
4.13513	
4.14734	
4.16565	
4.15649	
4.15955	
4.17175	
4.20685	
4.21295	
4.20074	
4.19159	
4.19464	
4.19006	
4.17633	
4.1687	
4.1748	
4.16107	
4.15344	
4.14886	
4.13361	
4.13208	
4.14124	
4.14276	
4.13361	
4.1275	
4.13818	
4.16565	
4.18396	
4.20685	
4.22974	
4.23737	
4.24194	
4.23889	
4.22516	
4.17938	
4.14581	
4.11835	
4.10614	
4.10614	
4.11682	
4.09698	
4.09241	
4.09698	
4.10767	
4.11835	
4.11835	
4.1275	
4.13513	
4.14429	
4.14429	
4.15039	
4.14124	
4.12903	
4.11835	
4.11072	
4.10919	
4.13513	
4.17328	
4.18243	
4.1748	
4.17786	
4.17786	
4.17633	
4.17938	
4.19464	
4.19312	
4.1748	
4.15649	
4.15039	
4.14276	
4.15039	
4.13818	
4.12598	
4.11835	
4.11835	
4.14886	
4.17328	
4.18701	
4.18091	
4.18243	
4.19006	
4.17786	
4.1687	
4.1687	
4.15955	
4.13818	
4.12903	
4.11224	
4.10461	
4.1275	
4.13971	
4.15039	
4.13208	
4.12598	
4.14124	
4.12598	
4.11835	
4.14429	
4.16718	
4.21906	
4.22363	
4.20837	
4.19617	
4.18243	
4.18243	
4.1748	
4.17633	
4.16718	
4.15344	
4.14581	
4.15649	
4.14734	
4.13513	
4.11377	
4.10461	
4.10614	
4.10614	
4.12445	
4.14581	
4.13361	
4.1275	
4.11377	
4.11377	
4.12445	
4.13055	
4.1214	
4.11377	
4.11224	
4.12598	
4.14734	
4.16107	
4.19922	
4.24194	
4.27246	
4.27094	
4.23431	
4.21295	
4.2038	
4.19312	
4.17938	
4.15344	
4.13361	
4.11987	
4.11072	
4.0863	
4.08325	
4.06952	
4.06342	
4.06952	
4.08478	
4.13971	
4.17786	
4.17175	
4.16718	
4.15955	
4.14581	
4.12598	
4.10461	
4.09698	
4.10614	
4.11835	
4.13208	
4.10919	
4.10461	
4.12598	
4.13971	
4.13208	
4.13055	
4.13971	
4.14124	
4.13055	
4.1275	
4.13513	
4.13055	
4.12598	
4.12445	
4.13208	
4.13361	
4.14276	
4.13666	
4.13666	
4.14429	
4.13513	
4.13361	
4.13208	
4.11835	
4.1153	
4.10461	
4.10614	
4.11377	
4.13666	
4.17175	
4.17633	
4.15955	
4.1687	
4.18091	
4.1748	
4.15802	
4.1626	
4.15039	
4.16107	
4.15039	
4.13513	
4.1153	
4.10919	
4.11835	
4.12903	
4.11987	
4.11072	
4.10309	
4.11224	
4.11682	
4.12598	
4.14886	
4.15649	
4.14124	
4.13055	
4.12598	
4.10309	
4.09241	
4.0802	
4.08783	
4.09698	
4.10004	
4.10614	
4.11835	
4.10767	
4.11682	
4.10614	
4.10614	
4.11835	
4.1275	
4.12598	
4.13361	
4.15802	
4.17175	
4.18396	
4.17633	
4.16412	
4.15344	
4.17175	
4.17023	
4.1626	
4.18243	
4.17023	
4.1626	
4.15649	
4.13361	
4.11377	
4.10461	
4.08783	
4.08173	
4.07562	
4.07867	
4.08783	
4.09241	
4.10614	
4.11072	
4.11072	
4.10614	
4.10919	
4.11682	
4.1153	
4.1214	
4.13818	
4.13513	
4.13513	
4.13971	
4.13055	
4.11835	
4.1214	
4.11835	
4.10767	
4.10004	
4.09241	
4.09393	
4.10156	
4.12903	
4.16412	
4.17175	
4.16565	
4.15192	
4.14734	
4.14276	
4.13818	
4.13208	
4.12903	
4.11987	
4.11835	
4.11224	
4.10461	
4.09546	
4.08936	
4.0863	
4.08173	
4.07867	
4.08783	
4.10156	
4.10156	
4.08478	
4.09241	
4.11072	
4.14429	
4.17328	
4.18854	
4.20837	
4.22974	
4.21448	
4.19617	
4.17786	
4.16107	
4.14581	
4.14276	
4.13971	
4.14429	
4.14581	
4.14124	
4.13513	
4.13818	
4.13971	
4.13818	
4.13055	
4.12445	
4.11987	
4.10919	
4.10614	
4.10461	
4.11377	
4.10767	
4.11072	
4.11224	
4.11377	
4.10461	
4.10461	
4.11835	
4.13513	
4.13055	
4.13818	
4.13666	
4.11835	
4.11682	
4.11224	
4.10767	
4.10004	
4.11224	
4.11835	
4.10919	
4.10919	
4.1153	
4.1153	
4.11377	
4.11835	
4.11835	
4.1275	
4.13361	
4.12598	
4.10767	
4.09698	
4.09393	
4.0802	
4.07715	
4.08325	
4.10309	
4.16107	
4.16107	
4.12598	
4.13513	
4.14429	
4.12598	
4.10309	
4.09698	
4.10461	
4.12903	
4.14276	
4.14886	
4.15649	
4.15039	
4.13361	
4.11835	
4.13361	
4.15955	
4.16412	
4.13971	
4.12903	
4.13055	
4.13055	
4.13055	
4.13513	
4.14886	
4.16107	
4.15192	
4.14429	
4.13971	
4.13818	
4.13666	
4.14124	
4.1275	
4.11987	
4.11682	
4.11682	
4.11682	
4.1214	
4.1214	
4.12903	
4.13208	
4.14429	
4.15802	
4.15039	
4.15344	
4.15192	
4.15039	
4.15039	
4.14734	
4.13208	
4.11682	
4.11835	
4.10309	
4.08478	
4.06647	
4.06647	
4.06036	
4.06189	
4.0741	
4.13055	
4.16565	
4.16718	
4.15649	
4.14886	
4.1626	
4.15802	
4.14124	
4.13361	
4.11987	
4.10461	
4.10461	
4.11682	
4.13361	
4.10919	
4.11072	
4.13208	
4.13818	
4.13666	
4.12903	
4.12903	
4.13361	
4.11072	
4.10309	
4.12445	
4.1214	
4.11835	
4.11987	
4.13666	
4.15039	
4.16412	
4.15649	
4.14581	
4.14886	
4.15344	
4.16412	
4.15649	
4.14734	
4.13971	
4.13971	
4.12903	
4.11682	
4.11224	
4.10919	
4.11377	
4.11835	
4.10767	
4.1214	
4.13666	
4.13513	
4.13055	
4.14429	
4.15039	
4.14124	
4.14734	
4.15039	
4.14886	
4.1214	
4.10614	
4.13208	
4.15344	
4.17175	
4.17633	
4.16412	
4.14581	
4.11987	
4.09698	
4.08783	
4.09851	
4.10614	
4.10919	
4.16107	
4.17786	
4.17328	
4.17786	
4.15192	
4.12903	
4.12598	
4.12598	
4.13208	
4.14124	
4.15192	
4.1687	
4.16107	
4.14124	
4.14276	
4.13513	
4.12903	
4.13055	
4.12598	
4.13055	
4.14124	
4.13666	
4.14429	
4.16107	
4.18243	
4.18701	
4.17786	
4.17633	
4.17328	
4.16718	
4.15192	
4.15344	
4.17175	
4.1748	
4.15955	
4.13055	
4.11377	
4.10461	
4.10614	
4.10309	
4.09698	
4.11835	
4.14734	
4.1626	
4.16412	
4.16107	
4.16107	
4.17633	
4.2038	
4.20685	
4.19006	
4.17023	
4.15192	
4.13818	
4.1214	
4.10004	
4.07867	
4.06342	
4.05731	
4.0802	
4.09698	
4.0802	
4.07867	
4.10919	
4.15192	
4.18091	
4.21143	
4.216	
4.20074	
4.19006	
4.18091	
4.16565	
4.15802	
4.15344	
4.14429	
4.13513	
4.12598	
4.1214	
4.1214	
4.12598	
4.12903	
4.14429	
4.14886	
4.14886	
4.16412	
4.15955	
4.17023	
4.16107	
4.1687	
4.17328	
4.16107	
4.14581	
4.15039	
4.15039	
4.15039	
4.16565	
4.17938	
4.20837	
4.23584	
4.22821	
4.19769	
4.16412	
4.14886	
4.13818	
4.12598	
4.11682	
4.10919	
4.10614	
4.10767	
4.1275	
4.13513	
4.13666	
4.14734	
4.16107	
4.18243	
4.15955	
4.15039	
4.15344	
4.1626	
4.17938	
4.17633	
4.1748	
4.1687	
4.1626	
4.17023	
4.17175	
4.18701	
4.20227	
4.19922	
4.17938	
4.16718	
4.17328	
4.1687	
4.15649	
4.15344	
4.16718	
4.18701	
4.19922	
4.20074	
4.22516	
4.20227	
4.19006	
4.1748	
4.1687	
4.15344	
4.14429	
4.14429	
4.14429	
4.14734	
4.15955	
4.14734	
4.14581	
4.13971	
4.13361	
4.12598	
4.13513	
4.14886	
4.19006	
4.2038	
4.20532	
4.19922	
4.17023	
4.18243	
4.19006	
4.17938	
4.1687	
4.15192	
4.14581	
4.15192	
4.18396	
4.2038	
4.19922	
4.1687	
4.15039	
4.13361	
4.12445	
4.10919	
4.10919	
4.10614	
4.10156	
4.10309	
4.12903	
4.14734	
4.13666	
4.1275	
4.12903	
4.11682	
4.13971	
4.18701	
4.19769	
4.22058	
4.25568	
4.25873	
4.24347	
4.245	
4.24194	
4.24805	
4.25873	
4.25568	
4.23279	
4.22211	
4.21448	
4.19769	
4.18701	
4.1748	
4.16565	
4.1626	
4.15039	
4.13818	
4.12598	
4.11987	
4.12598	
4.13208	
4.13513	
4.12903	
4.12903	
4.13971	
4.15802	
4.17023	
4.20685	
4.22058	
4.216	
4.20685	
4.20532	
4.2038	
4.19617	
4.18701	
4.1748	
4.18091	
4.20074	
4.19464	
4.19006	
4.19006	
4.19006	
4.19922	
4.20685	
4.20685	
4.20074	
4.19159	
4.17328	
4.14886	
4.13513	
4.1275	
4.11987	
4.11835	
4.10767	
4.11987	
4.15192	
4.17175	
4.19006	
4.18701	
4.1687	
4.15649	
4.16565	
4.17175	
4.20227	
4.22058	
4.22821	
4.22974	
4.22821	
4.216	
4.2099	
4.19922	
4.19006	
4.17938	
4.15649	
4.14124	
4.14276	
4.15039	
4.14886	
4.15039	
4.15802	
4.1748	
4.18396	
4.18091	
4.18701	
4.2038	
4.21295	
4.216	
4.21906	
4.22211	
4.21448	
4.20837	
4.20227	
4.18243	
4.16718	
4.16412	
4.1626	
4.15039	
4.13361	
4.13361	
4.14581	
4.15802	
4.15649	
4.15344	
4.14276	
4.14124	
4.15344	
4.17023	
4.18091	
4.1748	
4.16412	
4.1748	
4.18243	
4.18243	
4.1748	
4.17633	
4.17786	
4.18701	
4.20074	
4.21295	
4.2099	
4.216	
4.20227	
4.18091	
4.1748	
4.17938	
4.18396	
4.19006	
4.19159	
4.21143	
4.24652	
4.25568	
4.26025	
4.24347	
4.21906	
4.21295	
4.2099	
4.21448	
4.19922	
4.17938	
4.17175	
4.16412	
4.17938	
4.20532	
4.20074	
4.18701	
4.17938	
4.17786	
4.17175	
4.16718	
4.1687	
4.16565	
4.16412	
4.1626	
4.15802	
4.14734	
4.15039	
4.15192	
4.15192	
4.14886	
4.14886	
4.1687	
4.22211	
4.26788	
4.27399	
4.26331	
4.245	
4.23584	
4.23126	
4.22974	
4.21448	
4.20837	
4.18854	
4.18243	
4.18091	
4.17328	
4.1687	
4.15955	
4.15649	
4.14734	
4.15649	
4.15802	
4.17023	
4.17328	
4.1626	
4.16107	
4.1626	
4.17023	
4.17175	
4.19159	
4.22211	
4.21906	
4.22363	
4.23889	
4.22974	
4.23126	
4.24042	
4.24194	
4.24652	
4.24347	
4.24347	
4.27246	
4.27399	
4.26178	
4.26941	
4.2572	
4.23126	
4.21143	
4.2038	
4.20532	
4.20074	
4.18091	
4.18091	
4.1748	
4.15192	
4.13666	
4.14581	
4.17023	
4.17328	
4.1687	
4.1626	
4.16565	
4.1626	
4.1687	
4.18854	
4.216	
4.21906	
4.21143	
4.22058	
4.23431	
4.23889	
4.22668	
4.22668	
4.21448	
4.20532	
4.19769	
4.20074	
4.21143	
4.2038	
4.19922	
4.216	
4.22058	
4.21143	
4.20074	
4.19464	
4.19159	
4.18396	
4.1748	
4.16107	
4.15192	
4.15649	
4.16412	
4.17633	
4.20532	
4.26483	
4.26025	
4.24042	
4.2511	
4.26025	
4.26178	
4.27551	
4.27856	
4.27246	
4.26636	
4.26483	
4.25568	
4.25415	
4.2572	
4.24042	
4.22974	
4.24347	
4.26636	
4.28772	
4.30298	
4.29688	
4.28772	
4.26941	
4.24652	
4.23584	
4.22211	
4.23584	
4.23279	
4.20837	
4.19159	
4.1748	
4.16565	
4.16718	
4.15955	
4.16718	
4.1687	
4.18243	
4.20532	
4.22058	
4.22363	
4.21448	
4.2099	
4.20227	
4.20074	
4.20227	
4.20837	
4.21295	
4.21143	
4.22363	
4.22516	
4.23126	
4.25415	
4.23889	
4.23279	
4.22516	
4.21906	
4.21448	
4.21448	
4.216	
4.21295	
4.21448	
4.21906	
4.22211	
4.22516	
4.21448	
4.2038	
4.19159	
4.17786	
4.16718	
4.16565	
4.18091	
4.19769	
4.21448	
4.23584	
4.24805	
4.24805	
4.25873	
4.27246	
4.28925	
4.29382	
4.27704	
4.26483	
4.26941	
4.30145	
4.3045	
4.32129	
4.32434	
4.31213	
4.31824	
4.33044	
4.36249	
4.33044	
4.30756	
4.28619	
4.28925	
4.28009	
4.28619	
4.27094	
4.24194	
4.23126	
4.22974	
4.22974	
4.27094	
4.30298	
4.33197	
4.32587	
4.30756	
4.28314	
4.25568	
4.23889	
4.23126	
4.23737	
4.24347	
4.21906	
4.20227	
4.18701	
4.17786	
4.1687	
4.17023	
4.16565	
4.16718	
4.17633	
4.17938	
4.17786	
4.18701	
4.20532	
4.23584	
4.245	
4.25873	
4.29688	
4.31976	
4.36249	
4.37012	
4.37775	
4.35333	
4.32434	
4.32281	
4.31519	
4.28009	
4.2511	
4.22821	
4.22668	
4.22821	
4.22058	
4.20837	
4.2038	
4.19922	
4.20532	
4.20837	
4.20685	
4.20227	
4.21143	
4.20837	
4.22363	
4.23737	
4.25873	
4.29077	
4.30298	
4.30145	
4.29993	
4.29993	
4.29688	
4.29688	
4.28619	
4.27246	
4.26483	
4.25873	
4.2572	
4.2511	
4.245	
4.23126	
4.22058	
4.21295	
4.19769	
4.17938	
4.19769	
4.24805	
4.29382	
4.28772	
4.26941	
4.28772	
4.31671	
4.33197	
4.33197	
4.33807	
4.34723	
4.32129	
4.28467	
4.25415	
4.22516	
4.20837	
4.19922	
4.21295	
4.22668	
4.24347	
4.27551	
4.29535	
4.28619	
4.26178	
4.24805	
4.24194	
4.26483	
4.27704	
4.28467	
4.32281	
4.3335	
4.3335	
4.31976	
4.30603	
4.31061	
4.30145	
4.29535	
4.29077	
4.29382	
4.27246	
4.24042	
4.22668	
4.24194	
4.25415	
4.2923	
4.30756	
4.30145	
4.28925	
4.29382	
4.28772	
4.27551	
4.26025	
4.24347	
4.23737	
4.23584	
4.22516	
4.21295	
4.2099	
4.22211	
4.25415	
4.2511	
4.23737	
4.22668	
4.23126	
4.23126	
4.24042	
4.24805	
4.25568	
4.26483	
4.27094	
4.28467	
4.32434	
4.34113	
4.3335	
4.31976	
4.30298	
4.29688	
4.29993	
4.29382	
4.28314	
4.26636	
4.23737	
4.2099	
4.19312	
4.1748	
4.17633	
4.18854	
4.2099	
4.26025	
4.26025	
4.27704	
4.31671	
4.33807	
4.35791	
4.36707	
4.36707	
4.35028	
4.3396	
4.31671	
4.2984	
4.30145	
4.28925	
4.32739	
4.41895	
4.45862	
4.45099	
4.42963	
4.40063	
4.36707	
4.3396	
4.32129	
4.29077	
4.2572	
4.24194	
4.22058	
4.19922	
4.17023	
4.15344	
4.16107	
4.19769	
4.22516	
4.23889	
4.23584	
4.23279	
4.26025	
4.26483	
4.25873	
4.27094	
4.28925	
4.32739	
4.37012	
4.37164	
4.36249	
4.34265	
4.32739	
4.30603	
4.27094	
4.24194	
4.216	
4.22363	
4.25415	
4.28619	
4.31213	
4.26941	
4.24805	
4.245	
4.23889	
4.23584	
4.23737	
4.23431	
4.245	
4.25262	
4.2572	
4.26788	
4.27704	
4.27551	
4.29077	
4.29382	
4.30908	
4.36707	
4.39606	
4.39453	
4.42047	
4.42352	
4.41589	
4.39148	
4.36707	
4.3396	
4.30908	
4.28009	
4.25415	
4.23431	
4.22211	
4.2099	
4.19922	
4.2038	
4.20074	
4.19159	
4.20074	
4.20227	
4.20837	
4.22974	
4.26178	
4.27704	
4.27856	
4.28314	
4.27246	
4.26636	
4.29535	
4.31213	
4.33502	
4.35181	
4.37164	
4.39301	
4.38843	
4.3869	
4.41284	
4.41895	
4.40063	
4.36707	
4.33197	
4.2984	
4.27246	
4.245	
4.21448	
4.19769	
4.18701	
4.1748	
4.16412	
4.17938	
4.1687	
4.17786	
4.216	
4.26025	
4.29535	
4.30298	
4.31061	
4.31213	
4.32739	
4.30145	
4.28925	
4.27399	
4.27704	
4.27094	
4.26636	
4.26025	
4.29535	
4.35944	
4.3808	
4.38995	
4.39606	
4.4342	
4.50745	
4.52881	
4.46625	
4.40674	
4.37469	
4.32281	
4.28009	
4.2511	
4.22363	
4.19006	
4.18243	
4.17786	
4.16107	
4.15192	
4.14581	
4.14429	
4.14886	
4.14734	
4.17328	
4.20074	
4.21448	
4.23126	
4.245	
4.25568	
4.27094	
4.29993	
4.29535	
4.28619	
4.27856	
4.28772	
4.2923	
4.29535	
4.29535	
4.27551	
4.27856	
4.29993	
4.29688	
4.26636	
4.24652	
4.22516	
4.20837	
4.19464	
4.18243	
4.17633	
4.16412	
4.15039	
4.14886	
4.17938	
4.23279	
4.26483	
4.28619	
4.32434	
4.35638	
4.37164	
4.35486	
4.33044	
4.29993	
4.27551	
4.25873	
4.29993	
4.30908	
4.2923	
4.31213	
4.35944	
4.37012	
4.37317	
4.36554	
4.39606	
4.43268	
4.44794	
4.41895	
4.4342	
4.42505	
4.37927	
4.36859	
4.35333	
4.31976	
4.26941	
4.25568	
4.28314	
4.3869	
4.43726	
4.41284	
4.37927	
4.33197	
4.28772	
4.26788	
4.28619	
4.28925	
4.3457	
4.37775	
4.38538	
4.35791	
4.31976	
4.27094	
4.27551	
4.25262	
4.23431	
4.20227	
4.16412	
4.11835	
4.08325	
4.06799	
4.10767	
4.12445	
4.1275	
4.14276	
4.14581	
4.15192	
4.15192	
4.15344	
4.16412	
4.17175	
4.17023	
4.14734	
4.15192	
4.14886	
4.14429	
4.15802	
4.18091	
4.19617	
4.17938	
4.18701	
4.18854	
4.22363	
4.30298	
4.36401	
4.52271	
4.63104	
4.63257	
4.65546	
4.66461	
4.6402	
4.5929	
4.50897	
4.39606	
4.31061	
4.25415	
4.18701	
4.13971	
4.15955	
4.15802	
4.15192	
4.21448	
4.48151	
4.73633	
4.92249	
4.89807	
4.79889	
4.70123	
4.61273	
4.4693	
4.35791	
4.27399	
4.28925	
4.58527	
5.13916	
5.56183	
5.58777	
5.46722	
5.31311	
5.05829	
4.74548	
4.44794	
4.26941	
4.03748	
3.80707	
3.60107	
3.47137	
3.49121	
3.59497	
3.7674	
3.97797	
4.00238	
4.05426	
4.0741	
4.0329	
3.98254	
4.03442	
4.16565	
4.4342	
4.65088	
4.8172	
4.94843	
4.90723	
4.7821	
4.62036	
4.42352	
4.2511	
4.10614	
3.94287	
3.78113	
3.67126	
3.60718	
3.64532	
3.70941	
3.77655	
3.86505	
4.03442	
4.09851	
4.1275	
4.13208	
4.13971	
4.13971	
4.1275	
4.12598	
4.0802	
4.06189	
4.02832	
4.01917	
4.0329	
4.05426	
4.05731	
4.08478	
4.10614	
4.1275	
4.14886	
4.1626	
4.17023	
4.17938	
4.18243	
4.19006	
4.19464	
4.19769	
4.19617	
4.19922	
4.2038	
4.245	
4.31824	
4.61426	
5.04456	
5.26581	
5.32227	
5.35278	
5.18188	
4.96368	
4.73328	
4.52423	
4.29382	
4.0863	
3.91083	
3.76434	
3.66058	
3.64075	
3.68805	
3.76587	
3.88031	
4.02832	
4.30145	
4.41132	
4.43115	
4.43268	
4.5639	
4.63409	
4.6524	
4.63409	
4.76685	
5.16052	
5.15289	
4.96521	
4.71344	
4.51508	
4.32281	
4.26025	
4.19922	
4.13513	
4.10309	
4.26483	
4.4754	
4.52576	
4.50897	
4.42963	
4.40216	
4.3335	
4.17938	
4.00696	
3.88184	
3.75519	
3.68958	
3.61328	
3.57056	
3.62396	
3.67584	
3.81012	
4.13055	
5.26276	
6.53076	
7.00684	
7.6004	
7.78809	
7.52411	
7.00378	
6.35071	
5.5603	
4.70428	
3.88336	
3.19519	
2.71149	
2.36664	
2.15302	
2.07062	
2.12555	
2.58026	
3.02124	
3.43781	
4.0451	
5.09644	
5.43976	
5.36041	
5.13611	
4.85382	
4.59442	
4.24652	
3.9093	
3.59955	
3.37219	
3.19672	
3.14026	
3.17993	
3.25165	
3.34778	
3.479	
3.62549	
3.74298	
3.81927	
3.86353	
3.93372	
4.04816	
4.0741	
4.09698	
4.10919	
4.10614	
4.10919	
4.20074	
4.245	
4.24042	
4.35181	
4.66614	
5.31769	
5.8136	
6.14166	
6.6452	
6.45294	
5.96466	
5.40924	
4.80499	
4.23889	
3.76282	
3.37372	
3.02124	
2.82135	
2.7298	
2.77557	
3.08075	
3.38593	
3.72314	
3.98102	
4.30298	
4.85077	
5.26581	
5.51147	
5.32074	
5.08881	
5.06592	
4.87671	
4.55475	
4.15039	
3.75214	
3.41034	
3.23792	
3.23029	
3.30658	
3.61023	
3.97186	
4.20685	
4.31824	
5.06592	
5.97534	
6.03027	
5.67474	
5.14069	
4.62341	
4.15344	
3.70941	
3.41492	
3.23639	
3.14331	
3.05023	
3.14789	
3.46527	
3.93982	
4.23737	
4.29382	
4.30298	
5.08423	
5.3894	
5.31921	
4.93927	
4.62341	
4.32587	
4.02222	
3.85895	
3.83911	
3.68195	
3.43475	
3.27454	
3.38898	
3.85284	
4.22363	
4.24194	
4.16565	
4.03748	
3.93066	
4.02374	
4.65851	
4.94537	
5.14221	
5.10712	
4.81567	
4.47693	
4.20837	
3.89557	
3.70026	
3.46375	
3.32184	
3.23639	
3.26996	
3.44086	
3.5675	
3.63464	
3.69415	
3.7384	
4.01306	
4.14734	
4.17633	
4.29382	
4.29382	
4.54559	
4.66766	
4.77753	
4.66003	
4.45709	
4.37469	
4.7821	
5.93872	
6.15082	
5.61676	
4.98962	
4.56085	
4.43268	
4.22363	
4.16565	
3.83453	
3.42255	
3.17688	
3.17383	
3.25012	
3.35999	
3.39966	
3.39813	
3.39661	
3.40576	
3.47595	
3.67737	
4.13513	
4.24805	
4.25415	
4.22516	
4.75616	
5.14221	
5.16815	
5.00641	
4.69818	
4.36707	
4.05731	
3.84827	
3.57971	
3.50189	
3.34625	
3.32031	
3.49426	
3.61176	
3.72467	
4.21906	
4.68445	
4.80804	
4.82483	
4.63104	
4.36249	
4.11987	
3.93066	
3.86658	
3.86658	
4.02832	
4.08325	
4.03595	
3.99323	
3.97186	
3.862	
3.73688	
3.6499	
3.63464	
3.64227	
3.61176	
3.68195	
3.82385	
4.04968	
4.28619	
4.40521	
4.68292	
5.3772	
5.4306	
5.13916	
4.76532	
4.40674	
4.09698	
3.81775	
3.83148	
4.13361	
4.26483	
4.38538	
4.60358	
4.63409	
4.61884	
4.45251	
4.20837	
3.9505	
3.8269	
3.6438	
3.51257	
3.43475	
3.64075	
3.87421	
3.89099	
3.95966	
4.06342	
4.1626	
4.16412	
4.08173	
3.9856	
3.83606	
3.84064	
3.82538	
3.862	
3.94897	
4.17633	
4.37927	
4.89044	
5.32074	
5.17883	
5.02014	
4.73022	
4.37775	
4.04663	
4.14276	
4.01611	
4.37164	
4.30298	
4.04053	
3.89404	
3.81012	
3.78265	
3.66364	
3.51715	
3.37982	
3.40424	
3.508	
3.65906	
3.79944	
4.01306	
4.1275	
4.23584	
4.48456	
4.56238	
4.93774	
5.66711	
5.98145	
5.75104	
5.17273	
4.57153	
4.00696	
3.59955	
3.41949	
3.32336	
3.32489	
3.52631	
3.72467	
3.93982	
3.88947	
3.90167	
3.98254	
4.27399	
4.24042	
4.06036	
3.95966	
3.90778	
3.82233	
3.78418	
3.8147	
3.89404	
4.00543	
4.08478	
4.10461	
4.21143	
4.22058	
4.19464	
4.07867	
4.07257	
4.04816	
4.00238	
3.97034	
3.95203	
4.05579	
4.13055	
5.35278	
5.96008	
5.82428	
5.40314	
4.87518	
4.5639	
4.30908	
3.96729	
3.64227	
3.25317	
3.40118	
3.89557	
4.18243	
4.39606	
4.2984	
4.26788	
4.24347	
4.245	
4.14886	
3.94592	
3.67584	
3.61023	
3.67584	
3.58887	
3.57819	
3.62244	
3.74756	
4.06494	
4.47998	
4.5578	
4.40979	
4.50745	
4.48914	
4.3335	
4.17328	
4.05579	
3.99475	
3.91083	
3.9444	
4.09393	
4.07104	
4.11072	
4.05579	
3.95355	
3.98254	
4.03595	
4.58832	
4.96063	
5.04761	
4.9118	
4.59442	
4.37012	
4.11987	
3.90778	
3.61023	
3.45764	
3.68042	
3.93829	
4.09851	
4.28009	
4.47693	
4.46625	
4.52728	
4.50897	
4.36707	
4.13208	
3.96881	
3.77808	
3.60565	
3.72467	
4.04816	
4.15802	
4.216	
4.23431	
4.14124	
4.08936	
3.95508	
3.85895	
3.84369	
3.94745	
4.20837	
4.41589	
4.49677	
4.49066	
4.4281	
4.3396	
4.27856	
4.23737	
4.15649	
4.09241	
4.11835	
3.96576	
4.10156	
4.28009	
4.36707	
4.41437	
4.32281	
4.15192	
3.862	
3.70178	
3.90778	
4.24347	
4.40216	
4.33044	
4.09241	
4.01611	
3.71246	
3.79028	
4.19617	
4.3045	
4.35638	
4.29535	
4.22668	
4.17633	
4.19006	
4.245	
4.22058	
4.18091	
4.26941	
4.40216	
4.40216	
4.25262	
4.28009	
4.18396	
4.23126	
4.22211	
4.13361	
4.13971	
4.22974	
4.19922	
4.20532	
4.1626	
3.99017	
4.02069	
4.17023	
4.27246	
4.37469	
4.35028	
4.26483	
4.20685	
4.11835	
4.03442	
3.86047	
3.87268	
3.97797	
4.08173	
4.18854	
4.4342	
4.36249	
4.12445	
4.21295	
4.5166	
4.65546	
4.60205	
4.45709	
4.41132	
4.37317	
4.28772	
4.18091	
4.21906	
4.19159	
4.18854	
4.17938	
4.15039	
4.16565	
4.11835	
4.12445	
4.14734	
4.21143	
4.2511	
4.14734	
3.82538	
3.70636	
3.81317	
3.88184	
3.68347	
3.37982	
3.37982	
3.62091	
3.93524	
4.33197	
4.61273	
4.64325	
4.69055	
4.9408	
4.90265	
4.88281	
4.71802	
4.56238	
4.4342	
4.32739	
4.245	
4.13208	
4.02985	
3.89557	
3.75519	
3.85284	
4.02069	
4.15344	
4.17938	
4.13513	
4.30603	
4.22821	
4.34113	
4.23889	
4.13208	
4.0802	
4.26178	
4.13361	
4.0451	
4.17938	
4.26636	
4.32587	
4.25415	
4.13513	
4.04358	
4.11682	
4.29688	
4.52423	
4.55933	
4.40063	
4.32129	
4.07715	
4.18091	
4.13971	
4.27094	
4.28467	
4.40063	
4.55475	
4.52728	
4.39911	
4.3045	
4.15192	
3.70789	
3.5675	
3.685	
3.85895	
4.06952	
4.33807	
4.52271	
4.45251	
4.3869	
4.51965	
4.56848	
4.58069	
4.26788	
4.20227	
4.13818	
3.85895	
3.8269	
3.99017	
4.24194	
4.52881	
4.70428	
4.67072	
4.49829	
4.44946	
4.32129	
4.04968	
3.99933	
4.11987	
4.22516	
4.25568	
4.25873	
4.06799	
3.89862	
3.99933	
3.96576	
3.8559	
4.03595	
4.55475	
4.59442	
4.74396	
4.67529	
4.87976	
4.7821	
4.64478	
4.27399	
4.05731	
4.00085	
4.04816	
4.18701	
4.32281	
4.40369	
4.5578	
4.47845	
4.29077	
4.20227	
4.23279	
4.21295	
4.06647	
4.16565	
4.19922	
4.1687	
3.70178	
3.54309	
3.68805	
3.88641	
4.18396	
4.45099	
4.52881	
4.66766	
4.74854	
4.40063	
4.15802	
4.09698	
3.86047	
3.90778	
4.11072	
4.35638	
4.58221	
4.80499	
4.80652	
4.75006	
4.70581	
4.37164	
3.92456	
3.90778	
3.96118	
4.10919	
4.18091	
4.07104	
4.15344	
4.11987	
4.2572	
4.21143	
4.30908	
4.36554	
4.30756	
4.40063	
4.49982	
4.46014	
4.26483	
4.18396	
4.1626	
4.23737	
4.19769	
4.18701	
4.2099	
4.13971	
4.1687	
4.13513	
4.16107	
4.20227	
4.24652	
4.29382	
4.13208	
4.23431	
4.0863	
4.19922	
4.26178	
4.13513	
4.04816	
3.79791	
3.68805	
3.84064	
4.2572	
4.52423	
4.61884	
4.5929	
4.55933	
4.35333	
4.45862	
4.60205	
4.54865	
4.67224	
4.59137	
4.48456	
4.43268	
4.422	
4.38385	
4.31061	
4.18091	
4.00696	
4.00543	
3.93829	
3.75214	
3.85437	
4.08936	
4.50439	
4.62341	
4.57153	
4.43878	
4.26941	
4.25568	
4.33197	
4.245	
4.34723	
4.4693	
4.50897	
4.50745	
4.41742	
4.27399	
4.03595	
3.99323	
4.09241	
4.07257	
4.24194	
4.17938	
4.15649	
4.1687	
4.29077	
4.31671	
4.05121	
3.85437	
4.01764	
4.18091	
4.39606	
4.3869	
4.46014	
4.4281	
4.53033	
3.97339	
3.91388	
4.05121	
4.44641	
4.61273	
4.73175	
4.84314	
4.61731	
4.44489	
4.20837	
3.93372	
3.63464	
3.68195	
3.63464	
3.94287	
4.10919	
4.46472	
4.76685	
5.12238	
4.81262	
4.59747	
4.50439	
4.37927	
4.19922	
4.17328	
4.13971	
4.22974	
4.2923	
4.30298	
4.039	
4.14124	
4.17023	
4.24042	
4.27399	
4.16718	
4.54712	
4.46625	
4.09698	
4.13513	
4.2923	
4.54102	
4.91791	
4.73633	
4.65088	
4.60052	
4.56238	
4.3045	
4.14276	
4.2099	
4.2923	
4.44336	
4.5929	
4.53644	
4.21295	
4.15802	
4.30908	
4.54407	
4.70123	
4.81415	
4.55017	
4.45709	
4.22211	
4.0802	
4.27704	
4.48761	
4.61578	
4.61121	
4.49524	
4.44946	
4.41895	
4.36554	
4.40674	
4.37775	
4.34113	
4.33044	
4.37927	
4.25873	
3.9093	
3.38593	
3.6972	
4.23431	
4.81873	
5.2002	
5.34821	
5.22766	
4.77295	
4.74396	
4.53949	
4.45557	
4.52118	
4.65698	
4.79584	
4.5639	
4.23126	
4.21906	
4.28619	
4.51355	
4.50134	
4.63104	
4.79736	
4.57764	
4.63409	
4.58527	
4.63715	
4.46777	
4.5517	
4.52271	
4.41437	
4.53186	
4.55627	
4.69666	
4.74243	
4.69055	
4.59595	
4.42505	
4.40369	
4.53186	
4.63867	
4.776	
4.80042	
4.86298	
4.59442	
4.58221	
4.69666	
4.71344	
4.64783	
4.62646	
4.36707	
4.27246	
4.2511	
4.45862	
4.3869	
4.18091	
3.99017	
4.26941	
4.55933	
4.76227	
4.96368	
5.00641	
4.73938	
4.52881	
4.62036	
4.91028	
5.23376	
5.37109	
5.159	
4.64935	
4.65546	
4.60052	
4.63257	
4.53339	
4.50592	
4.43878	
3.95203	
3.90472	
4.11224	
4.49829	
4.8584	
5.00946	
5.13611	
5.1651	
4.79126	
4.76532	
4.87366	
4.99115	
5.00946	
4.83551	
4.85535	
4.87518	
4.75006	
4.64478	
4.51965	
4.44794	
4.45862	
4.67529	
4.78668	
4.94537	
4.90112	
4.76379	
4.62036	
4.71344	
4.75159	
4.85687	
5.11169	
4.97742	
4.90417	
4.83551	
4.73633	
4.69208	
4.80957	
4.75616	
4.37927	
4.36707	
4.18091	
4.36554	
4.67834	
4.93164	
4.98199	
5.04608	
5.28564	
5.09033	
5.13153	
5.03845	
4.77448	
4.53186	
4.62189	
4.80499	
4.90875	
4.96826	
4.9057	
4.7287	
4.48303	
4.42352	
4.33044	
4.37317	
4.16718	
4.34113	
4.7287	
5.2475	
5.2536	
5.28412	
5.17578	
5.15442	
4.59595	
4.19464	
4.28925	
4.59137	
4.84009	
5.05371	
5.22308	
5.22614	
5.0293	
4.98352	
4.88739	
4.83551	
4.83093	
4.95453	
5.09338	
5.13916	
4.88739	
4.61426	
4.64325	
4.66003	
4.71497	
4.75006	
4.74701	
4.57916	
4.53339	
4.51355	
4.6524	
4.77142	
4.89807	
5.19867	
5.18494	
4.91638	
4.6402	
4.65546	
4.77448	
4.87213	
4.94537	
4.88281	
4.61273	
4.41284	
4.32892	
4.4632	
4.68445	
4.89807	
5.00641	
5.11017	
5.24292	
5.02472	
4.93011	
4.92859	
4.95148	
4.94385	
4.91028	
4.84161	
4.79889	
4.85077	
4.8645	
4.87366	
4.85077	
4.87213	
4.86603	
4.78516	
4.68903	
4.51508	
4.58374	
4.60968	
4.81873	
4.93164	
5.08118	
5.06592	
5.17426	
5.07965	
4.87518	
4.89807	
5.03235	
4.92554	
4.74548	
4.70276	
4.86603	
4.953	
4.83856	
4.71954	
4.89502	
4.87823	
4.86145	
4.80652	
4.73785	
4.83704	
4.76837	
4.93469	
5.06897	
5.17273	
5.05371	
5.23682	
5.0415	
5.00488	
4.96521	
4.78363	
4.6463	
4.73633	
4.8111	
4.96674	
5.1239	
5.06592	
5.10712	
5.03235	
4.96674	
5.03998	
5.14374	
5.12085	
5.03998	
5.01709	
4.86908	
4.80194	
4.66919	
4.75159	
4.93774	
5.09644	
5.16357	
5.0354	
4.93622	
4.99725	
5.05219	
4.96063	
4.93774	
4.89349	
4.8584	
4.59137	
4.52728	
4.70886	
4.92249	
5.02777	
5.08118	
5.2063	
5.31921	
5.09796	
5.00946	
4.95758	
4.96979	
4.97742	
5.00946	
5.00793	
4.97589	
4.94232	
4.88281	
4.64935	
4.29077	
4.40979	
4.74548	
5.16815	
5.41229	
5.34058	
5.02472	
5.25055	
5.13458	
5.01251	
5.00793	
5.0415	
5.05219	
5.05371	
5.03387	
5.09949	
5.11475	
5.10864	
5.07507	
5.03845	
4.98199	
5.08118	
4.93164	
4.83856	
4.76532	
4.90265	
5.03082	
5.01862	
4.91943	
4.88281	
5.0415	
5.22003	
5.34058	
5.2063	
5.22919	
5.16663	
5.03082	
4.96368	
4.91333	
4.93011	
4.95758	
5.00183	
5.08881	
5.12848	
5.16663	
5.20325	
5.11627	
5.11169	
4.95453	
4.95758	
4.96979	
5.05371	
5.06897	
5.14221	
5.12848	
5.06287	
4.98962	
4.99573	
5.00946	
5.06592	
5.03387	
5.00488	
4.98047	
5.02167	
5.18188	
5.03082	
4.97131	
4.92096	
5.08118	
5.12543	
5.16357	
5.11627	
5.06897	
4.96674	
5.03998	
5.08575	
5.12238	
5.17273	
5.24139	
5.35583	
5.20782	
5.2124	
5.24597	
5.27496	
5.27191	
5.16357	
4.96216	
4.80652	
4.79736	
4.88129	
4.99115	
5.15747	
5.28107	
5.26886	
5.14679	
5.159	
5.05524	
5.0766	
5.10101	
5.11322	
5.15747	
5.15289	
5.27344	
5.27496	
5.21393	
5.13916	
5.12695	
5.12695	
5.05981	
5.03235	
5.08118	
5.14221	
5.15747	
5.09491	
5.09338	
5.13458	
5.24292	
5.25818	
5.1178	
5.14374	
5.11169	
4.96826	
4.98657	
5.02014	
5.02319	
5.12695	
5.26276	
5.29785	
5.36194	
5.26123	
5.20325	
5.13611	
5.07202	
5.04608	
5.01251	
5.05981	
5.18341	
5.31616	
5.31311	
5.40924	
5.23376	
5.14221	
5.00336	
4.72717	
4.72107	
4.89655	
5.1178	
5.27649	
5.37872	
5.30243	
5.40924	
5.54504	
5.38635	
5.33447	
5.26733	
5.25665	
5.2002	
5.22614	
5.18036	
5.18188	
5.16357	
5.04913	
4.94995	
4.8172	
4.90417	
5.14221	
5.33295	
5.53436	
5.46112	
5.43518	
5.16052	
5.16663	
5.19562	
5.22156	
5.18951	
5.18494	
5.19562	
5.20935	
5.16205	
5.16205	
5.1651	
5.22156	
5.2536	
5.26581	
5.19104	
5.25208	
5.31311	
5.35278	
5.40314	
5.41077	
5.31921	
5.22003	
5.14679	
5.20325	
5.22156	
5.22003	
5.24902	
5.24445	
5.1178	
5.14069	
5.16815	
5.13916	
5.18799	
5.14832	
5.16205	
5.14526	
5.24139	
5.22919	
5.19714	
5.17426	
5.20325	
5.29175	
5.35736	
5.4184	
5.52216	
5.36346	
5.19409	
5.15442	
5.19409	
5.14832	
5.15747	
5.2948	
5.31464	
5.36499	
5.43823	
5.39398	
5.40009	
5.24445	
5.14374	
5.14221	
5.23071	
5.31158	
5.31921	
5.3421	
5.34058	
5.45349	
5.26581	
5.3009	
5.21851	
5.19104	
5.21851	
5.23376	
5.23529	
5.20935	
5.22003	
5.26733	
5.34363	
5.44739	
5.44586	
5.18036	
5.08575	
5.09491	
5.159	
5.28564	
5.3009	
5.36957	
5.2948	
5.30548	
5.32684	
5.40466	
5.32684	
4.99115	
4.95453	
5.10254	
5.27954	
5.4184	
5.52521	
5.70374	
5.52063	
5.31006	
5.21698	
5.26886	
5.30396	
5.33142	
5.33752	
5.2597	
5.21698	
5.39703	
5.3833	
5.3299	
5.22919	
5.2002	
5.22614	
5.30701	
5.3299	
5.36652	
5.44739	
5.44891	
5.48096	
5.35583	
5.3833	
5.41992	
5.3421	
5.20325	
5.16052	
5.0705	
4.9942	
5.14069	
5.22614	
5.32684	
5.45044	
5.53894	
5.47943	
5.52063	
5.37415	
5.2887	
5.26733	
5.29175	
5.12085	
5.09338	
5.1712	
5.37109	
5.59845	
5.63812	
5.57251	
5.53436	
5.30243	
5.34515	
5.3421	
5.32532	
5.31311	
5.24597	
5.19562	
5.13916	
5.14526	
5.28717	
5.40619	
5.44891	
5.4306	
5.52521	
5.46417	
5.36041	
5.36804	
5.34821	
5.25208	
5.18188	
5.10712	
5.03845	
5.14832	
5.28107	
5.45959	
5.54199	
5.47791	
5.39703	
5.34515	
5.34363	
5.36194	
5.44281	
5.50079	
5.49774	
5.43823	
5.49469	
5.44281	
5.34821	
5.28717	
5.30548	
5.31769	
5.33752	
5.34821	
5.39398	
5.31006	
5.24139	
5.23987	
5.34821	
5.45959	
5.45959	
5.50842	
5.43823	
5.40924	
5.40771	
5.39703	
5.40771	
5.41687	
5.4184	
5.38788	
5.31769	
5.2124	
5.15747	
5.21393	
5.33752	
5.35583	
5.4245	
5.47028	
5.44891	
5.39703	
5.19867	
5.20477	
5.26886	
5.40161	
5.35278	
5.38177	
5.35736	
5.36957	
5.36957	
5.40466	
5.38025	
5.35126	
5.52979	
5.56183	
5.5542	
5.5191	
5.45349	
5.52216	
5.47333	
5.45349	
5.42908	
5.34973	
5.27039	
5.27802	
5.32684	
5.37567	
5.41534	
5.49011	
5.4306	
5.3894	
5.44586	
5.41534	
5.46112	
5.47791	
5.48096	
5.44281	
5.42755	
5.3894	
5.40161	
5.40771	
5.41992	
5.43823	
5.43671	
5.40466	
5.45654	
5.39398	
5.36804	
5.36957	
5.37109	
5.3833	
5.42908	
5.41229	
5.37109	
5.44739	
5.46112	
5.36957	
5.16663	
5.19867	
5.29785	
5.45197	
5.513	
5.52216	
5.59082	
5.60455	
5.53436	
5.50232	
5.47638	
5.47943	
5.4657	
5.47333	
5.46112	
5.46112	
5.46417	
5.48248	
5.46265	
5.42145	
5.42603	
5.45044	
5.45959	
5.43213	
5.41534	
5.35278	
5.25665	
5.27039	
5.3833	
5.49164	
5.53131	
5.50079	
5.50842	
5.48248	
5.50537	
5.48248	
5.46417	
5.41534	
5.31616	
5.30243	
5.36499	
5.44739	
5.50385	
5.50537	
5.47485	
5.49622	
5.45959	
5.3894	
5.46722	
5.53741	
5.54657	
5.58472	
5.55267	
5.49774	
5.51147	
5.52979	
5.5191	
5.49011	
5.46722	
5.43976	
5.45044	
5.48096	
5.52368	
5.58472	
5.59998	
5.60455	
5.6015	
5.52368	
5.49011	
5.45959	
5.45044	
5.44586	
5.46722	
5.44281	
5.37415	
5.3421	
5.39551	
5.49316	
5.50385	
5.49774	
5.56641	
5.59845	
5.62744	
5.63354	
5.59998	
5.56183	
5.55878	
5.5542	
5.55267	
5.53894	
5.53589	
5.54047	
5.53284	
5.52063	
5.41229	
5.24292	
5.2124	
5.21698	
5.28107	
5.4306	
5.57251	
5.74188	
5.71136	
5.73883	
5.76172	
5.66864	
5.59387	
5.61218	
5.62134	
5.62134	
5.60455	
5.59692	
5.57404	
5.53436	
5.50842	
5.513	
5.53589	
5.56641	
5.56793	
5.56946	
5.62439	
5.76019	
5.56488	
5.43823	
5.40314	
5.48248	
5.54657	
5.64117	
5.68695	
5.65796	
5.64423	
5.60913	
5.65186	
5.6427	
5.66864	
5.67017	
5.65338	
5.57404	
5.54199	
5.54199	
5.56946	
5.58929	
5.61218	
5.71747	
5.72662	
5.62744	
5.57098	
5.55878	
5.60455	
5.6839	
5.70221	
5.67322	
5.69763	
5.62286	
5.62286	
5.63965	
5.68237	
5.62439	
5.58319	
5.57861	
5.58624	
5.58777	
5.59082	
5.58777	
5.69153	
5.6488	
5.6488	
5.65796	
5.66406	
5.69763	
5.61981	
5.56488	
5.53284	
5.5481	
5.58319	
5.6076	
5.69458	
5.71899	
5.65186	
5.68085	
5.61523	
5.63507	
5.58777	
5.51605	
5.52216	
5.56335	
5.71594	
5.81207	
5.79987	
5.83954	
5.76935	
5.68848	
5.66559	
5.69763	
5.66864	
5.65186	
5.6366	
5.69916	
5.74646	
5.65491	
5.61523	
5.61829	
5.69	
5.70068	
5.68085	
5.63354	
5.59235	
5.64423	
5.70374	
5.72815	
5.77087	
5.75104	
5.69611	
5.62897	
5.57098	
5.5603	
5.56183	
5.56488	
5.62897	
5.63049	
5.62134	
5.5603	
5.50385	
5.49774	
5.65948	
5.83344	
5.88074	
5.84259	
5.87616	
5.85022	
5.75409	
5.71289	
5.70526	
5.71899	
5.7373	
5.73273	
5.68085	
5.62286	
5.48096	
5.43671	
5.43213	
5.46875	
5.52216	
5.57556	
5.65338	
5.78003	
5.77698	
5.77545	
5.72052	
5.76172	
5.80597	
5.81055	
5.75256	
5.70679	
5.72968	
5.65338	
5.73425	
5.73273	
5.78003	
5.69305	
5.62286	
5.58319	
5.62134	
5.52979	
5.40771	
5.3299	
5.4184	
5.49316	
5.72357	
5.92194	
5.94177	
5.94177	
5.95093	
5.94635	
5.8548	
5.82581	
5.81207	
5.8075	
5.83038	
5.77698	
5.72357	
5.68237	
5.6366	
5.57556	
5.45197	
5.48859	
5.53741	
5.68085	
5.75562	
5.80139	
5.83649	
5.85175	
5.86395	
5.87006	
5.9021	
5.92804	
5.92804	
5.90515	
5.9021	
5.82733	
5.79224	
5.82275	
5.79987	
5.79987	
5.79681	
5.79681	
5.7785	
5.63202	
5.50385	
5.45197	
5.49011	
5.52979	
5.60608	
5.73883	
5.89142	
5.91583	
5.94025	
5.91736	
5.87006	
5.83038	
5.84259	
5.85175	
5.87311	
5.87158	
5.83038	
5.83649	
5.81818	
5.74341	
5.69	
5.68237	
5.72052	
5.79834	
5.82886	
5.81055	
5.76019	
5.74341	
5.88074	
5.86853	
5.86243	
5.80597	
5.77698	
5.81512	
5.83954	
5.87769	
5.90057	
5.90363	
5.84869	
5.82581	
5.84106	
5.86243	
5.81818	
5.68542	
5.5954	
5.59235	
5.63049	
5.73578	
5.84564	
5.93567	
5.95398	
5.94788	
6.00433	
5.93872	
5.81818	
5.80292	
5.82123	
5.84106	
5.81818	
5.80597	
5.79987	
5.81055	
5.81055	
5.69611	
5.59845	
5.56946	
5.61218	
5.62439	
5.6366	
5.67474	
5.69305	
5.75867	
5.92651	
5.97839	
5.98145	
5.9906	
5.99518	
5.98907	
5.95703	
5.9845	
5.9082	
5.8075	
5.79224	
5.79834	
5.85632	
5.94025	
5.95551	
5.94177	
5.9845	
6.03485	
5.99518	
5.92499	
5.88074	
5.83954	
5.85938	
5.85327	
5.83191	
5.78613	
5.74188	
5.67932	
5.66406	
5.71594	
5.71594	
5.74341	
5.82428	
5.83191	
5.90515	
5.99976	
6.04401	
6.01044	
6.00586	
6.01044	
5.97382	
5.96771	
5.96008	
5.93719	
5.896	
5.85327	
5.83344	
5.8197	
5.78918	
5.78308	
5.79987	
5.80597	
5.79987	
5.77698	
5.85175	
5.91278	
5.896	
5.96008	
6.03027	
6.0318	
6.01959	
5.98297	
5.98145	
5.96008	
5.91278	
5.87769	
5.84717	
5.84869	
5.81665	
5.71899	
5.63812	
5.58472	
5.56641	
5.64728	
5.78308	
5.85632	
5.88837	
5.95093	
5.98297	
6.2088	
6.23627	
6.13403	
5.98297	
5.88837	
5.87769	
5.92346	
5.92194	
5.91431	
5.92957	
5.91583	
5.89447	
5.87158	
5.89447	
5.88226	
5.88226	
5.84717	
5.81818	
5.82123	
5.89447	
5.91431	
5.9433	
5.97534	
5.9967	
6.03943	
6.05927	
6.05927	
6.04858	
6.03638	
5.96771	
5.92804	
5.85938	
5.86853	
5.86395	
5.87311	
5.88837	
5.92194	
5.9082	
5.93719	
5.95398	
5.91888	
5.92194	
5.93414	
5.91583	
5.85938	
5.84869	
5.86395	
5.88989	
5.9082	
5.9494	
5.98907	
6.03333	
6.10809	
6.13556	
6.03638	
5.87463	
5.79376	
5.80292	
5.82275	
5.85938	
5.91431	
5.92804	
5.93262	
5.87616	
5.87158	
5.91736	
5.92651	
5.9021	
5.93719	
5.94788	
5.96008	
5.97687	
5.95856	
5.9433	
5.95093	
5.92957	
5.90057	
5.91278	
5.95551	
6.13861	
6.19202	
6.12793	
6.09283	
6.06384	
5.99213	
5.92041	
5.87311	
5.85327	
5.87158	
5.88531	
5.93567	
5.95703	
5.95551	
5.92957	
5.91736	
5.92804	
5.98602	
6.01654	
6.05469	
6.05011	
6.00281	
5.98602	
5.98755	
5.98755	
5.97687	
5.98297	
5.98145	
5.95703	
5.95551	
5.96771	
5.99213	
6.00891	
6.00433	
5.97076	
5.96771	
5.97687	
5.99213	
6.02875	
6.073	
6.10657	
6.02112	
5.95398	
5.91431	
5.94482	
5.94635	
5.93414	
5.9082	
5.93414	
5.95551	
5.95398	
5.94788	
5.97076	
5.98907	
6.02417	
6.05164	
5.96008	
5.91431	
5.896	
5.84106	
5.80292	
5.83344	
5.91278	
6.03027	
6.10962	
6.06689	
6.05011	
6.03333	
6.09741	
6.22559	
6.20422	
6.13098	
6.11725	
6.0791	
6.01349	
5.97992	
5.94177	
5.89752	
5.88531	
5.91431	
5.9494	
5.99823	
6.0318	
6.03027	
6.04706	
6.02875	
6.05621	
6.06384	
6.05011	
6.03943	
6.073	
6.08063	
6.07605	
6.05927	
6.0379	
6.02722	
6.07605	
6.06384	
6.06842	
6.09894	
6.05164	
5.99823	
5.99976	
6.02722	
6.04858	
6.05164	
6.06232	
6.07147	
6.08521	
6.10504	
6.1142	
6.14319	
6.14319	
6.11877	
6.09741	
6.11725	
6.11267	
6.09589	
6.06689	
6.08368	
6.08826	
6.0791	
6.02875	
5.87921	
5.81818	
5.82886	
5.9082	
6.02112	
6.13403	
6.14929	
6.13861	
6.01654	
5.94635	
6.10962	
6.24237	
6.28052	
6.24084	
6.20117	
6.14166	
6.09589	
6.09741	
6.07758	
6.09131	
6.06842	
6.06537	
6.10352	
6.08521	
6.08673	
6.09894	
6.09283	
6.10657	
6.17828	
6.22711	
6.21338	
6.22711	
6.22101	
6.17523	
6.15692	
6.1554	
6.13861	
6.12488	
6.13708	
6.16608	
6.16302	
6.17523	
6.14166	
6.11115	
6.18286	
6.17371	
6.13556	
6.10809	
6.05011	
6.01196	
6.02112	
6.00433	
6.01196	
6.04706	
6.14471	
6.19659	
6.24237	
6.23932	
6.21033	
6.17676	
6.24695	
6.29272	
6.33545	
6.24542	
6.17065	
6.1615	
6.15845	
6.17828	
6.19659	
6.19049	
6.18744	
6.17981	
6.17981	
6.17218	
6.17218	
6.17065	
6.15387	
6.13861	
6.13861	
6.12946	
6.12946	
6.14929	
6.19202	
6.23016	
6.25153	
6.24084	
6.19965	
6.11877	
6.05011	
6.09283	
6.19812	
6.19202	
6.12488	
6.12946	
6.12488	
6.12946	
6.12183	
6.15997	
6.15692	
6.1264	
6.09589	
6.0791	
6.15082	
6.17523	
6.19812	
6.18744	
6.18744	
6.19202	
6.17676	
6.19507	
6.22101	
6.21033	
6.20117	
6.20117	
6.19659	
6.19354	
6.19659	
6.22253	
6.23474	
6.23474	
6.23169	
6.20422	
6.22101	
6.21338	
6.24695	
6.24084	
6.23627	
6.21033	
6.22101	
6.23169	
6.21338	
6.19812	
6.17218	
6.19965	
6.23627	
6.26678	
6.30035	
6.31714	
6.31561	
6.27747	
6.23016	
6.14471	
6.12335	
6.19965	
6.24542	
6.26678	
6.26984	
6.23779	
6.17981	
6.19202	
6.18134	
6.1615	
6.15082	
6.19049	
6.23474	
6.21796	
6.26678	
6.27594	
6.27747	
6.26373	
6.28967	
6.29272	
6.27747	
6.19965	
6.1676	
6.18286	
6.18896	
6.13403	
6.14014	
6.13861	
6.15082	
6.14624	
6.14319	
6.1264	
6.11725	
6.16608	
6.19354	
6.2088	
6.26068	
6.28357	
6.27441	
6.27747	
6.26221	
6.27289	
6.2973	
6.26526	
6.23779	
6.23016	
6.25	
6.25916	
6.25916	
6.23016	
6.21185	
6.22864	
6.26984	
6.27594	
6.2439	
6.21948	
6.22253	
6.23016	
6.23169	
6.21033	
6.16913	
6.12488	
6.08368	
6.1554	
6.19202	
6.2027	
6.2912	
6.30493	
6.29578	
6.2851	
6.28662	
6.23627	
6.19965	
6.2149	
6.21948	
6.23322	
6.22101	
6.27289	
6.35986	
6.30951	
6.29425	
6.25916	
6.20575	
6.1554	
6.14929	
6.11267	
6.08826	
6.09741	
6.14014	
6.18134	
6.20117	
6.19507	
6.18286	
6.16455	
6.14624	
6.14471	
6.15082	
6.19202	
6.18134	
6.16608	
6.15692	
6.15997	
6.15845	
6.1615	
6.2027	
6.25	
6.22864	
6.18591	
6.14777	
6.13098	
6.14014	
6.14471	
6.15082	
6.15082	
6.17981	
6.21338	
6.23169	
6.17828	
6.18896	
6.2088	
6.19202	
6.16455	
6.18134	
6.16913	
6.1615	
6.14166	
6.12946	
6.15387	
6.15845	
6.13098	
6.09436	
6.06232	
6.08521	
6.13556	
6.18286	
6.13403	
6.09436	
6.10657	
6.14929	
6.21796	
6.22253	
6.23932	
6.25763	
6.22864	
6.19507	
6.12488	
6.04553	
6.03333	
6.12488	
6.18896	
6.16608	
6.14777	
6.19812	
6.16455	
6.13403	
6.10046	
6.0791	
6.05011	
6.073	
6.08826	
6.09741	
6.18744	
6.25458	
6.32172	
6.34003	
6.29272	
6.23779	
6.16302	
6.15997	
6.10352	
6.02112	
6.04858	
6.05011	
6.04248	
6.06384	
6.13403	
6.17523	
6.16608	
6.17523	
6.15082	
6.13556	
6.073	
6.10809	
6.14624	
6.18134	
6.14014	
6.09436	
6.06079	
6.00891	
5.97534	
5.93719	
5.97839	
6.03333	
6.09741	
6.10962	
6.15082	
6.19049	
6.17523	
6.17981	
6.15387	
6.13251	
6.1142	
6.09589	
6.09283	
6.08521	
6.06842	
6.1142	
6.2027	
6.17371	
6.15997	
6.10352	
6.06537	
6.05469	
6.02417	
6.07605	
6.14014	
6.08521	
6.0379	
6.00586	
6.00586	
6.00281	
6.02112	
6.01349	
6.02722	
6.05927	
6.06384	
6.04248	
6.08215	
6.14014	
6.12793	
6.17065	
6.22864	
6.2088	
6.20728	
6.14929	
6.09131	
6.01807	
5.95093	
5.93567	
5.89447	
5.87769	
5.9021	
5.97229	
6.00433	
6.01349	
6.07758	
6.15845	
6.1676	
6.13556	
6.12946	
6.06384	
6.1142	
6.17828	
6.12488	
6.22101	
6.26068	
6.23474	
6.17828	
6.06995	
5.95703	
5.87769	
5.83954	
5.81665	
5.78461	
5.89752	
5.98602	
6.01501	
6.01807	
5.99976	
5.97229	
5.96313	
5.94635	
5.95551	
5.97992	
6.01959	
6.03638	
6.05621	
6.09436	
6.09283	
6.08368	
6.06537	
6.02417	
5.99976	
6.05316	
6.06232	
6.02264	
5.96466	
5.95398	
5.93872	
5.97229	
6.0379	
5.98907	
5.97382	
6.01044	
6.01196	
6.02112	
5.97687	
5.91278	
5.88837	
5.87006	
5.88684	
5.89294	
5.92346	
5.9845	
6.06537	
6.08368	
6.0379	
6.02264	
6.01501	
6.02112	
6.05469	
6.11572	
6.12183	
6.04706	
5.97534	
5.97076	
5.94177	
5.9082	
5.87158	
5.85327	
5.84412	
5.83649	
5.84259	
5.91125	
5.94177	
5.88684	
5.88379	
5.91736	
5.94177	
5.91431	
5.91431	
5.93262	
5.92804	
5.92194	
6.04858	
6.12335	
6.19202	
6.39954	
6.3797	
6.3797	
6.29578	
6.14624	
6.02264	
5.9082	
5.75104	
5.61829	
5.57861	
5.64728	
5.7312	
5.76019	
5.79071	
5.80139	
5.80597	
5.81512	
5.84869	
5.80597	
5.80139	
5.85938	
5.90515	
5.91278	
5.9082	
6.01807	
6.2088	
6.25763	
6.23016	
6.19507	
6.10657	
5.95551	
5.85938	
5.79376	
5.73273	
5.65796	
5.62897	
5.71442	
5.80597	
5.8075	
5.78613	
5.8136	
5.83191	
5.84717	
5.87311	
5.87769	
5.87311	
6.05164	
6.11572	
6.13403	
6.09131	
6.03027	
5.96313	
5.90363	
5.84106	
5.76477	
5.67322	
5.64423	
5.70679	
5.76935	
5.79071	
5.80597	
5.85175	
5.85938	
5.8197	
5.76935	
5.73578	
5.71899	
5.75562	
5.85632	
5.96008	
6.02112	
6.06842	
6.14929	
6.30646	
6.24237	
6.13251	
6.00586	
5.86395	
5.77545	
5.72662	
5.65796	
5.6076	
5.57251	
5.61829	
5.6839	
5.70679	
5.76172	
5.79376	
5.83344	
5.86548	
5.98907	
6.24084	
6.39648	
6.47278	
6.39038	
6.23627	
6.01959	
5.82428	
5.69	
5.61676	
5.49011	
5.39703	
5.42908	
5.5069	
5.65491	
5.69611	
5.75409	
5.77087	
5.76477	
5.76324	
5.76477	
5.76477	
5.78461	
5.82123	
5.83344	
5.83344	
5.89142	
5.88074	
5.83344	
5.77087	
5.91736	
6.08063	
6.12488	
6.05469	
5.9845	
5.9082	
5.83344	
5.74188	
5.65796	
5.61066	
5.5603	
5.60608	
5.64423	
5.68695	
5.70526	
5.73425	
5.72205	
5.72052	
5.72662	
5.72357	
5.76782	
5.79987	
5.95856	
6.28662	
6.52618	
6.46667	
6.30035	
6.10962	
5.91278	
5.72357	
5.57556	
5.45807	
5.29327	
5.24597	
5.36346	
5.52979	
5.59082	
5.65796	
5.6839	
5.70679	
5.72662	
5.74341	
5.72968	
5.69763	
5.70984	
5.77698	
5.76782	
5.75104	
5.74799	
5.86853	
6.00281	
6.09589	
6.02722	
5.96924	
5.9433	
5.87311	
5.81055	
5.7312	
5.61676	
5.50232	
5.47485	
5.4718	
5.49927	
5.54657	
