2.69165	
2.6886	
2.69012	
2.69623	
2.6947	
2.6947	
2.69165	
2.69012	
2.69012	
2.69012	
2.6886	
2.6886	
2.69012	
2.6947	
2.69623	
2.6947	
2.68707	
2.69012	
2.68707	
2.69165	
2.6886	
2.69012	
2.68707	
2.68707	
2.69012	
2.68707	
2.69012	
2.68707	
2.69165	
2.69165	
2.69623	
2.6947	
2.69928	
2.69012	
2.6886	
2.69165	
2.6886	
2.69928	
2.6947	
2.69012	
2.68555	
2.6886	
2.69165	
2.69623	
2.6886	
2.69012	
2.6947	
2.69012	
2.6947	
2.6947	
2.69165	
2.69012	
2.69623	
2.6947	
2.69165	
2.68707	
2.6886	
2.6947	
2.69165	
2.69012	
2.6886	
2.68707	
2.6886	
2.69165	
2.6947	
2.69165	
2.69165	
2.69623	
2.6947	
2.69928	
2.70081	
2.70233	
2.70386	
2.70538	
2.70538	
2.70386	
2.70691	
2.70386	
2.70538	
2.70538	
2.70233	
2.69775	
2.6947	
2.69623	
2.70081	
2.69928	
2.69775	
2.69775	
2.6947	
2.6886	
2.68707	
2.6825	
2.67944	
2.67792	
2.67181	
2.6825	
2.67792	
2.67792	
2.67639	
2.67639	
2.67487	
2.67487	
2.67792	
2.67944	
2.68555	
2.68402	
2.68097	
2.6825	
2.68097	
2.68555	
2.6825	
2.68402	
2.6886	
2.69012	
2.69165	
2.69012	
2.68555	
2.68707	
2.68707	
2.6886	
2.69012	
2.69928	
2.70233	
2.70081	
2.69928	
2.69623	
2.6947	
2.6886	
2.6886	
2.69012	
2.68707	
2.6886	
2.68402	
2.68097	
2.67792	
2.67792	
2.68097	
2.68402	
2.68097	
2.67639	
2.67944	
2.68555	
2.6825	
2.68555	
2.6825	
2.68555	
2.68707	
2.68707	
2.68707	
2.68707	
2.68707	
2.68402	
2.69012	
2.68555	
2.6886	
2.68707	
2.68707	
2.69165	
2.69012	
2.68402	
2.68707	
2.68707	
2.68707	
2.69012	
2.6886	
2.6886	
2.6886	
2.6886	
2.68555	
2.6886	
2.68402	
2.6886	
2.69012	
2.69623	
2.6947	
2.69623	
2.6947	
2.69623	
2.70081	
2.69928	
2.70081	
2.70081	
2.69928	
2.69623	
2.6947	
2.6947	
2.69775	
2.69165	
2.69012	
2.6886	
2.68707	
2.6886	
2.68402	
2.68555	
2.6825	
2.6886	
2.6886	
2.68707	
2.6825	
2.6825	
2.68097	
2.68097	
2.6825	
2.6825	
2.68402	
2.6825	
2.67792	
2.67487	
2.6825	
2.68097	
2.6825	
2.6825	
2.68402	
2.6825	
2.68402	
2.68097	
2.67944	
2.68097	
2.67944	
2.68097	
2.68402	
2.68097	
2.68097	
2.68097	
2.67792	
2.67792	
2.67639	
2.67792	
2.67944	
2.68402	
2.68402	
2.68402	
2.68097	
2.67792	
2.67944	
2.6825	
2.68097	
2.68402	
2.68402	
2.68097	
2.68097	
2.68097	
2.6825	
2.67792	
2.67639	
2.68097	
2.68402	
2.68402	
2.68555	
2.6825	
2.67792	
2.67792	
2.6825	
2.68097	
2.68402	
2.68402	
2.67792	
2.6825	
2.69012	
2.69012	
2.6947	
2.69165	
2.69623	
2.69623	
2.69165	
2.68707	
2.67944	
2.67944	
2.67639	
2.67944	
2.67487	
2.67487	
2.67487	
2.66724	
2.67029	
2.66876	
2.66724	
2.66571	
2.66876	
2.67334	
2.67334	
2.6825	
2.6825	
2.67792	
2.67639	
2.67487	
2.67487	
2.67944	
2.67944	
2.67639	
2.67487	
2.67487	
2.67487	
2.67334	
2.67181	
2.67487	
2.67487	
2.67639	
2.67487	
2.67639	
2.67181	
2.67181	
2.67181	
2.67639	
2.67639	
2.67792	
2.67334	
2.67639	
2.67487	
2.67334	
2.67792	
2.67487	
2.67487	
2.67792	
2.67944	
2.67639	
2.67487	
2.67639	
2.67181	
2.67487	
2.67639	
2.67181	
2.67181	
2.67181	
2.67334	
2.67181	
2.67487	
2.67334	
2.67334	
2.67792	
2.67639	
2.67792	
2.67639	
2.67181	
2.67334	
2.67334	
2.67334	
2.67639	
2.67487	
2.67181	
2.67487	
2.67334	
2.67029	
2.67029	
2.67181	
2.67181	
2.67181	
2.67181	
2.67334	
2.67029	
2.66876	
2.67029	
2.67181	
2.66876	
2.67487	
2.67181	
2.67029	
2.66571	
2.66724	
2.66418	
2.66876	
2.66724	
2.66724	
2.67181	
2.67181	
2.67334	
2.67181	
2.66876	
2.67029	
2.67334	
2.67487	
2.67487	
2.67639	
2.67334	
2.67487	
2.67181	
2.67029	
2.66724	
2.67487	
2.67334	
2.67639	
2.67792	
2.67944	
2.67792	
2.67639	
2.67487	
2.67181	
2.67487	
2.67487	
2.67181	
2.67487	
2.67334	
2.67029	
2.67181	
2.67029	
2.66724	
2.66876	
2.66418	
2.66418	
2.66571	
2.65808	
2.66113	
2.65656	
2.65808	
2.66113	
2.65961	
2.65656	
2.65656	
2.65503	
2.65503	
2.65503	
2.65808	
2.65961	
2.66418	
2.66571	
2.66113	
2.65808	
2.66418	
2.66113	
2.66571	
2.66113	
2.66724	
2.66571	
2.66418	
2.66418	
2.66113	
2.66418	
2.66724	
2.66571	
2.66724	
2.66571	
2.66571	
2.66418	
2.66418	
2.66876	
2.66724	
2.66724	
2.67181	
2.67181	
2.66418	
2.66571	
2.66571	
2.66418	
2.66113	
2.66113	
2.66571	
2.66724	
2.66113	
2.66418	
2.65961	
2.65961	
2.65808	
2.65656	
2.65808	
2.65656	
2.65503	
2.65503	
2.65961	
2.65961	
2.65503	
2.65808	
2.65961	
2.66113	
2.65808	
2.66113	
2.66113	
2.65808	
2.65503	
2.65656	
2.65808	
2.65961	
2.65808	
2.66113	
2.65656	
2.65961	
2.65656	
2.65503	
2.6535	
2.65503	
2.6535	
2.6535	
2.65961	
2.65961	
2.6535	
2.65656	
2.65198	
2.65656	
2.65961	
2.65503	
2.65198	
2.65503	
2.65961	
2.65656	
2.65808	
2.65503	
2.6535	
2.65503	
2.65656	
2.65198	
2.65808	
2.65656	
2.65656	
2.66113	
2.65961	
2.66113	
2.65808	
2.65808	
2.65503	
2.6535	
2.65045	
2.6535	
2.65198	
2.65198	
2.6535	
2.65808	
2.65503	
2.6535	
2.65961	
2.66113	
2.66571	
2.66571	
2.66876	
2.66876	
2.66876	
2.66418	
2.66113	
2.66113	
2.65656	
2.65503	
2.6535	
2.6535	
2.65045	
2.65198	
2.64893	
2.64587	
2.64587	
2.6474	
2.64587	
2.64587	
2.64435	
2.64435	
2.6474	
2.64587	
2.64587	
2.6474	
2.6474	
2.6474	
2.64587	
2.6474	
2.64893	
2.64893	
2.6474	
2.6474	
2.64893	
2.65198	
2.65198	
2.6474	
2.64893	
2.65045	
2.64587	
2.64587	
2.64587	
2.6474	
2.65045	
2.64893	
2.65198	
2.64893	
2.64893	
2.64893	
2.6474	
2.65198	
2.6535	
2.65198	
2.64587	
2.64435	
2.64435	
2.64435	
2.64587	
2.65198	
2.64893	
2.6474	
2.65198	
2.6474	
2.64893	
2.6474	
2.64587	
2.64587	
2.6474	
2.6474	
2.64587	
2.64893	
2.6474	
2.64282	
2.64435	
2.64893	
2.6474	
2.6474	
2.64282	
2.6474	
2.65045	
2.64435	
2.6413	
2.64435	
2.6474	
2.6474	
2.64587	
2.64282	
2.6413	
2.6413	
2.6413	
2.63977	
2.64282	
2.64282	
2.64435	
2.64435	
2.64435	
2.64435	
2.64282	
2.6474	
2.64893	
2.65198	
2.65198	
2.64893	
2.64893	
2.64587	
2.64893	
2.64587	
2.6474	
2.64893	
2.65045	
2.64893	
2.64587	
2.64587	
2.63977	
2.6413	
2.63977	
2.64282	
2.63824	
2.63519	
2.63672	
2.63672	
2.63672	
2.62604	
2.63214	
2.63519	
2.63672	
2.63367	
2.63824	
2.63672	
2.63824	
2.63824	
2.63367	
2.63519	
2.63672	
2.63977	
2.63672	
2.63824	
2.63519	
2.63672	
2.63519	
2.63672	
2.63977	
2.64282	
2.6474	
2.64435	
2.64587	
2.6474	
2.6474	
2.64587	
2.64282	
2.64435	
2.6413	
2.63977	
2.63214	
2.62909	
2.62756	
2.62604	
2.61993	
2.62451	
2.63214	
2.62909	
2.62604	
2.62909	
2.62909	
2.62909	
2.63214	
2.63367	
2.63519	
2.63214	
2.63367	
2.63367	
2.63214	
2.63214	
2.63672	
2.62909	
2.63519	
2.63672	
2.63519	
2.63519	
2.63519	
2.62909	
2.63214	
2.63367	
2.63214	
2.63519	
2.63519	
2.62909	
2.63367	
2.63672	
2.63214	
2.62909	
2.63214	
2.63214	
2.63367	
2.63367	
2.63519	
2.62604	
2.62909	
2.62909	
2.62756	
2.62909	
2.63367	
2.62909	
2.62909	
2.62604	
2.62756	
2.62909	
2.62604	
2.62909	
2.62756	
2.62756	
2.62909	
2.62909	
2.62451	
2.62604	
2.62909	
2.62756	
2.62909	
2.62909	
2.62604	
2.62299	
2.62299	
2.62299	
2.62756	
2.62604	
2.62451	
2.62299	
2.62756	
2.62756	
2.63214	
2.62451	
2.62451	
2.62604	
2.62756	
2.63214	
2.62909	
2.62604	
2.62604	
2.62451	
2.62756	
2.62299	
2.62451	
2.62756	
2.62604	
2.62756	
2.63214	
2.62299	
2.62604	
2.62604	
2.62604	
2.63367	
2.62756	
2.62604	
2.62451	
2.62604	
2.62299	
2.62299	
2.62146	
2.62146	
2.62451	
2.62604	
2.62756	
2.62756	
2.62299	
2.62299	
2.62604	
2.62451	
2.62756	
2.62756	
2.62299	
2.62299	
2.62756	
2.62299	
2.62604	
2.62604	
2.62604	
2.62451	
2.62299	
2.62451	
2.62146	
2.62299	
2.62146	
2.62146	
2.62299	
2.62451	
2.62299	
2.62451	
2.62146	
2.62299	
2.62299	
2.61841	
2.62146	
2.62146	
2.62299	
2.62146	
2.62299	
2.61841	
2.61993	
2.61841	
2.61993	
2.61688	
2.62146	
2.62299	
2.61841	
2.61536	
2.61383	
2.61383	
2.61536	
2.61993	
2.61841	
2.61688	
2.61841	
2.61841	
2.61688	
2.62299	
2.62299	
2.62604	
2.63367	
2.62756	
2.62909	
2.62909	
2.62756	
2.61993	
2.62299	
2.62299	
2.62909	
2.62604	
2.61993	
2.62146	
2.61993	
2.61993	
2.61536	
2.61841	
2.61688	
2.61688	
2.61841	
2.61841	
2.61993	
2.62146	
2.62451	
2.62451	
2.62604	
2.62756	
2.63367	
2.63519	
2.63672	
2.62756	
2.62909	
2.62604	
2.62756	
2.62909	
2.62756	
2.62451	
2.62299	
2.62146	
2.61841	
2.61688	
2.61688	
2.61536	
2.61383	
2.61383	
2.61841	
2.61688	
2.6123	
2.61688	
2.61536	
2.61383	
2.61688	
2.61688	
2.61993	
2.61078	
2.61688	
2.61536	
2.61536	
2.61536	
2.61688	
2.62146	
2.61841	
2.61993	
2.61993	
2.61841	
2.61688	
2.61993	
2.61688	
2.62146	
2.62146	
2.61993	
2.61841	
2.61993	
2.61993	
2.61688	
2.61841	
2.61841	
2.62146	
2.62299	
2.61993	
2.61841	
2.61993	
2.61841	
2.61688	
2.62299	
2.61993	
2.62146	
2.61993	
2.62909	
2.63672	
2.6413	
2.64435	
2.64282	
2.64435	
2.63977	
2.6413	
2.63977	
2.63214	
2.62756	
2.62909	
2.63214	
2.63214	
2.63367	
2.63519	
2.63519	
2.63519	
2.62604	
2.62604	
2.62756	
2.63214	
2.62604	
2.62299	
2.62299	
2.61993	
2.61688	
2.6123	
2.60925	
2.61078	
2.61078	
2.61383	
2.61383	
2.61383	
2.61383	
2.61688	
2.61688	
2.61688	
2.61841	
2.61841	
2.62146	
2.62146	
2.61841	
2.61993	
2.61993	
2.61841	
2.62299	
2.62299	
2.62299	
2.62146	
2.62146	
2.61841	
2.61841	
2.61536	
2.62451	
2.63367	
2.63519	
2.63519	
2.63519	
2.62909	
2.63367	
2.63214	
2.63519	
2.63824	
2.63672	
2.63214	
2.62909	
2.62909	
2.62451	
2.62451	
2.62299	
2.62604	
2.62604	
2.62756	
2.62756	
2.62756	
2.63672	
2.64435	
2.64893	
2.65198	
2.64587	
2.6474	
2.64282	
2.63672	
2.63214	
2.62909	
2.62604	
2.61688	
2.61383	
2.60925	
2.60925	
2.60773	
2.59705	
2.59705	
2.60162	
2.60315	
2.60773	
2.6123	
2.61993	
2.61841	
2.61841	
2.61688	
2.62146	
2.62451	
2.63519	
2.63672	
2.63672	
2.64282	
2.64587	
2.6413	
2.63824	
2.63519	
2.62756	
2.63214	
2.62604	
2.62451	
2.62299	
2.61993	
2.61688	
2.61993	
2.61993	
2.61688	
2.61688	
2.61536	
2.61993	
2.62146	
2.62146	
2.61993	
2.62299	
2.62299	
2.62299	
2.62299	
2.61993	
2.61993	
2.61993	
2.61841	
2.61688	
2.61841	
2.61841	
2.61993	
2.61841	
2.62146	
2.61993	
2.61993	
2.62299	
2.61536	
2.62451	
2.62451	
2.62451	
2.62451	
2.62299	
2.62604	
2.62451	
2.62299	
2.62451	
2.62451	
2.62451	
2.61841	
2.61993	
2.61688	
2.61841	
2.62146	
2.61993	
2.62451	
2.62604	
2.62299	
2.62451	
2.62604	
2.62299	
2.61993	
2.62146	
2.62451	
2.62604	
2.63824	
2.63824	
2.63824	
2.63672	
2.62604	
2.63214	
2.63214	
2.62909	
2.62451	
2.62451	
2.62146	
2.61993	
2.61536	
2.61536	
2.61383	
2.61383	
2.61383	
2.6123	
2.61536	
2.61078	
2.61383	
2.61383	
2.61383	
2.62146	
2.61536	
2.61993	
2.63214	
2.63672	
2.63367	
2.63977	
2.63824	
2.64282	
2.63672	
2.6413	
2.63672	
2.63519	
2.62604	
2.62146	
2.61993	
2.61383	
2.61536	
2.61078	
2.60773	
2.60162	
2.60468	
2.60162	
2.60468	
2.6123	
2.6123	
2.61536	
2.61841	
2.62146	
2.62146	
2.62146	
2.61841	
2.61841	
2.61841	
2.61688	
2.61841	
2.61383	
2.61078	
2.61078	
2.60925	
2.6062	
2.60925	
2.61078	
2.6123	
2.60925	
2.6123	
2.61078	
2.61078	
2.6123	
2.60925	
2.6123	
2.61536	
2.61688	
2.61383	
2.61536	
2.61383	
2.6123	
2.61688	
2.6123	
2.61841	
2.61383	
2.61688	
2.61841	
2.61688	
2.61841	
2.61841	
2.61841	
2.62299	
2.62299	
2.62451	
2.61841	
2.61993	
2.61841	
2.61536	
2.61688	
2.61841	
2.61841	
2.61841	
2.61993	
2.61841	
2.61688	
2.61536	
2.61536	
2.61688	
2.61841	
2.61688	
2.61536	
2.60925	
2.61383	
2.61536	
2.61536	
2.61383	
2.61688	
2.61841	
2.61841	
2.61993	
2.61993	
2.61841	
2.61536	
2.61383	
2.61841	
2.61841	
2.61688	
2.61383	
2.61078	
2.61383	
2.61383	
2.60925	
2.61383	
2.61993	
2.61993	
2.61993	
2.61536	
2.61536	
2.61383	
2.6123	
2.61688	
2.61841	
2.61688	
2.61841	
2.61688	
2.61841	
2.61383	
2.61078	
2.61841	
2.61688	
2.61688	
2.61688	
2.61688	
2.61841	
2.61536	
2.61536	
2.61841	
2.61536	
2.61993	
2.62451	
2.63214	
2.63367	
2.63977	
2.63824	
2.63824	
2.64282	
2.63977	
2.63977	
2.63824	
2.63519	
2.62299	
2.62299	
2.61993	
2.61383	
2.61688	
2.6123	
2.6062	
2.60468	
2.60468	
2.6062	
2.60315	
2.6062	
2.6062	
2.60773	
2.60773	
2.61688	
2.61841	
2.61841	
2.61688	
2.62146	
2.61841	
2.62146	
2.62451	
2.61688	
2.61536	
2.61688	
2.61688	
2.61536	
2.61383	
2.61536	
2.61841	
2.61536	
2.61536	
2.61383	
2.61078	
2.61078	
2.61383	
2.61688	
2.61536	
2.61841	
2.6123	
2.6123	
2.6123	
2.61078	
2.60925	
2.6123	
2.61688	
2.61383	
2.61841	
2.61688	
2.60925	
2.61536	
2.6123	
2.61383	
2.61688	
2.61841	
2.61993	
2.61841	
2.61993	
2.61993	
2.62146	
2.61841	
2.61993	
2.62146	
2.61688	
2.61993	
2.61841	
2.61383	
2.61688	
2.61688	
2.61536	
2.61993	
2.61688	
2.61688	
2.61536	
2.61536	
2.61078	
2.61383	
2.61536	
2.61688	
2.61688	
2.61841	
2.61993	
2.62146	
2.61688	
2.61536	
2.61841	
2.61688	
2.61383	
2.61841	
2.61688	
2.61841	
2.61383	
2.6123	
2.61078	
2.61993	
2.62756	
2.62604	
2.62909	
2.63367	
2.62604	
2.62451	
2.62604	
2.62146	
2.62146	
2.62299	
2.62299	
2.62146	
2.61993	
2.61841	
2.61688	
2.61688	
2.61536	
2.61993	
2.61993	
2.61993	
2.61841	
2.60925	
2.60925	
2.61078	
2.60925	
2.60925	
2.61841	
2.62299	
2.62451	
2.62451	
2.61841	
2.62299	
2.62146	
2.61993	
2.61688	
2.61383	
2.61383	
2.6123	
2.60925	
2.60468	
2.60468	
2.60468	
2.59857	
2.60162	
2.60162	
2.60315	
2.60315	
2.60925	
2.60773	
2.60773	
2.61078	
2.61078	
2.61078	
2.61078	
2.60468	
2.60925	
2.60925	
2.61078	
2.60925	
2.6123	
2.6123	
2.60925	
2.60925	
2.60925	
2.61078	
2.60925	
2.61078	
2.6123	
2.61078	
2.6123	
2.61536	
2.61536	
2.61383	
2.6123	
2.6123	
2.61383	
2.61688	
2.6123	
2.61383	
2.61383	
2.60925	
2.61078	
2.60925	
2.60773	
2.60925	
2.61078	
2.61078	
2.60773	
2.60773	
2.60468	
2.60773	
2.6062	
2.60925	
2.60773	
2.60773	
2.60773	
2.6062	
2.60468	
2.60315	
2.6062	
2.60773	
2.6062	
2.61078	
2.60773	
2.60468	
2.6062	
2.6062	
2.60773	
2.6123	
2.60925	
2.60925	
2.60773	
2.6062	
2.6062	
2.61078	
2.6123	
2.61536	
2.61383	
2.6123	
2.61078	
2.61078	
2.61078	
2.60773	
2.61383	
2.61536	
2.61841	
2.61841	
2.61536	
2.62146	
2.62146	
2.61383	
2.6123	
2.61078	
2.60773	
2.60925	
2.60925	
2.60315	
2.60468	
2.60162	
2.60162	
2.60162	
2.60162	
2.61383	
2.61841	
2.61536	
2.62146	
2.61993	
2.61841	
2.6123	
2.6123	
2.61993	
2.62451	
2.62451	
2.61841	
2.61078	
2.61078	
2.60773	
2.59705	
2.59857	
2.59399	
2.59094	
2.59094	
2.59399	
2.59552	
2.59552	
2.59094	
2.59399	
2.59399	
2.59552	
2.59857	
2.60162	
2.59705	
2.59857	
2.60162	
2.59857	
2.60468	
2.6062	
2.60162	
2.60468	
2.60925	
2.60315	
2.60315	
2.60468	
2.60315	
2.60468	
2.6062	
2.60773	
2.60773	
2.6062	
2.60468	
2.60773	
2.60468	
2.60925	
2.60925	
2.60773	
2.60773	
2.60773	
2.60773	
2.6062	
2.61078	
2.60925	
2.60925	
2.60925	
2.60468	
2.59705	
2.59857	
2.60468	
2.60162	
2.6062	
2.60162	
2.60162	
2.59857	
2.59705	
2.60162	
2.59857	
2.59857	
2.59705	
2.6062	
2.60315	
2.6062	
2.60468	
2.60925	
2.60925	
2.60925	
2.60468	
2.61078	
2.6123	
2.60773	
2.60925	
2.61078	
2.6062	
2.60773	
2.60773	
2.60468	
2.60925	
2.60468	
2.6062	
2.60315	
2.6062	
2.60162	
2.6062	
2.6123	
2.61383	
2.61688	
2.60925	
2.6123	
2.6123	
2.61383	
2.6123	
2.61078	
2.60925	
2.60773	
2.60773	
2.6062	
2.60315	
2.61688	
2.62146	
2.61841	
2.62299	
2.61841	
2.62146	
2.61536	
2.6123	
2.61536	
2.60925	
2.60773	
2.6062	
2.60315	
2.60315	
2.60468	
2.59857	
2.59705	
2.59399	
2.59399	
2.59705	
2.59705	
2.59552	
2.59399	
2.59552	
2.60162	
2.59399	
2.59094	
2.59399	
2.60162	
2.59857	
2.60162	
2.60315	
2.60162	
2.60468	
2.60162	
2.60162	
2.60162	
2.60468	
2.60468	
2.6062	
2.60468	
2.60773	
2.60773	
2.60468	
2.60468	
2.60468	
2.6062	
2.6062	
2.60925	
2.60468	
2.60773	
2.6062	
2.60773	
2.61078	
2.6123	
2.60925	
2.6062	
2.6062	
2.60773	
2.60468	
2.60468	
2.60468	
2.6062	
2.60773	
2.60925	
2.6123	
2.61536	
2.61993	
2.61536	
2.61383	
2.61383	
2.61383	
2.60925	
2.60468	
2.6062	
2.60315	
2.59705	
2.60315	
2.60315	
2.60315	
2.60315	
2.60162	
2.60162	
2.59552	
2.59857	
2.6062	
2.6062	
2.6062	
2.60315	
2.60315	
2.6062	
2.60315	
2.60162	
2.60468	
2.60773	
2.61078	
2.61078	
2.60925	
2.60315	
2.59552	
2.59552	
2.59399	
2.59247	
2.59399	
2.59247	
2.59399	
2.59094	
2.59399	
2.58789	
2.58942	
2.58484	
2.59552	
2.59552	
2.59857	
2.60315	
2.59705	
2.60162	
2.60925	
2.60773	
2.6123	
2.61536	
2.61536	
2.60925	
2.60315	
2.6062	
2.59552	
2.59399	
2.59399	
2.59094	
2.59094	
2.58942	
2.58636	
2.58484	
2.58331	
2.57874	
2.58789	
2.58789	
2.59247	
2.59094	
2.58789	
2.59094	
2.58942	
2.58942	
2.58789	
2.58942	
2.58942	
2.59094	
2.58789	
2.58942	
2.58484	
2.58942	
2.58789	
2.58636	
2.59247	
2.59247	
2.58636	
2.58636	
2.58789	
2.58942	
2.59094	
2.58789	
2.59094	
2.59247	
2.59399	
2.59247	
2.59247	
2.58942	
2.59094	
2.59247	
2.58942	
2.59247	
2.59399	
2.58789	
2.58789	
2.59094	
2.59094	
2.59094	
2.59094	
2.58942	
2.58942	
2.59094	
2.59094	
2.58789	
2.58789	
2.58636	
2.58942	
2.58942	
2.59094	
2.59094	
2.58636	
2.58636	
2.58942	
2.58636	
2.58331	
2.58789	
2.58789	
2.58789	
2.58942	
2.58942	
2.58331	
2.58636	
2.58331	
2.58636	
2.59247	
2.58789	
2.58789	
2.59094	
2.58942	
2.58636	
2.58636	
2.58331	
2.58636	
2.58789	
2.58942	
2.59552	
2.60315	
2.60468	
2.60162	
2.60925	
2.60315	
2.60773	
2.60468	
2.60162	
2.59552	
2.59552	
2.59094	
2.59094	
2.59552	
2.59399	
2.59552	
2.59552	
2.58942	
2.58942	
2.58636	
2.58179	
2.58484	
2.58331	
2.58636	
2.59247	
2.59399	
2.59399	
2.59094	
2.58942	
2.58636	
2.58484	
2.58636	
2.58179	
2.57874	
2.58484	
2.57721	
2.57568	
2.57416	
2.56653	
2.57416	
2.57111	
2.57111	
2.57263	
2.57568	
2.58026	
2.58179	
2.57874	
2.58331	
2.58636	
2.58484	
2.58636	
2.58484	
2.58636	
2.58179	
2.58331	
2.58484	
2.58636	
2.58484	
2.58484	
2.58484	
2.58636	
2.58179	
2.58331	
2.58789	
2.58636	
2.58789	
2.58789	
2.58942	
2.58789	
2.58636	
2.58636	
2.58789	
2.58789	
2.58789	
2.59094	
2.58636	
2.58789	
2.58484	
2.58636	
2.58484	
2.59094	
2.58942	
2.59094	
2.59094	
2.59094	
2.58789	
2.58789	
2.59094	
2.58636	
2.59399	
2.58789	
2.58942	
2.58636	
2.58331	
2.58789	
2.58789	
2.58636	
2.58942	
2.59094	
2.59094	
2.59094	
2.59247	
2.58942	
2.58789	
2.58942	
2.58942	
2.59247	
2.59247	
2.58942	
2.59094	
2.59094	
2.58942	
2.58789	
2.58789	
2.59094	
2.58789	
2.59094	
2.59247	
2.59247	
2.58942	
2.58942	
2.59094	
2.59094	
2.59094	
2.59247	
2.58789	
2.58636	
2.58789	
2.58942	
2.58331	
2.58636	
2.58942	
2.59094	
2.59094	
2.58942	
2.58942	
2.58789	
2.58636	
2.59247	
2.59247	
2.59094	
2.58942	
2.58789	
2.58484	
2.58942	
2.58484	
2.58636	
2.58636	
2.58636	
2.58942	
2.59094	
2.59094	
2.58942	
2.58942	
2.58789	
2.58789	
2.59094	
2.58636	
2.58636	
2.58789	
2.58636	
2.58636	
2.58484	
2.58789	
2.58789	
2.58789	
2.58942	
2.58789	
2.58789	
2.58789	
2.58636	
2.59247	
2.58942	
2.58636	
2.58484	
2.58179	
2.58484	
2.58636	
2.58484	
2.58026	
2.58331	
2.58789	
2.58942	
2.58942	
2.58789	
2.58636	
2.58484	
2.58636	
2.58789	
2.59399	
2.59094	
2.58942	
2.59247	
2.59399	
2.60162	
2.59857	
2.59399	
2.59705	
2.59552	
2.59705	
2.59552	
2.59247	
2.59247	
2.58789	
2.58789	
2.58789	
2.58636	
2.58789	
2.58179	
2.57874	
2.57874	
2.58026	
2.58026	
2.58331	
2.58636	
2.58484	
2.58026	
2.57874	
2.58179	
2.58026	
2.57721	
2.58026	
2.58484	
2.58484	
2.58484	
2.58179	
2.58179	
2.58179	
2.58331	
2.57721	
2.58026	
2.57874	
2.59094	
2.59857	
2.59857	
2.59399	
2.59399	
2.59247	
2.59399	
2.59094	
2.58942	
2.58636	
2.58636	
2.58179	
2.57721	
2.57874	
2.57721	
2.57568	
2.57721	
2.57721	
2.58179	
2.58179	
2.58484	
2.58179	
2.58026	
2.58484	
2.58331	
2.58179	
2.57874	
2.57874	
2.57721	
2.57568	
2.57416	
2.57721	
2.57874	
2.58026	
2.58331	
2.58179	
2.58331	
2.57874	
2.57568	
2.58331	
2.58179	
2.58331	
2.58484	
2.58331	
2.58179	
2.58026	
2.57874	
2.57874	
2.58789	
2.59552	
2.59857	
2.60315	
2.60315	
2.59857	
2.59552	
2.59247	
2.59247	
2.59247	
2.59399	
2.58484	
2.58484	
2.57721	
2.57416	
2.56805	
2.56653	
2.56653	
2.56653	
2.56653	
2.57111	
2.56805	
2.56805	
2.57111	
2.57263	
2.57263	
2.57568	
2.57874	
2.57721	
2.57874	
2.57568	
2.57874	
2.58026	
2.58331	
2.58331	
2.58789	
2.58789	
2.58789	
2.59399	
2.60162	
2.59857	
2.6062	
2.59857	
2.59552	
2.58942	
2.58636	
2.58026	
2.57568	
2.56653	
2.56348	
2.56653	
2.565	
2.56653	
2.56348	
2.565	
2.56653	
2.56348	
2.565	
2.565	
2.57568	
2.56805	
2.57263	
2.57721	
2.57416	
2.57568	
2.57416	
2.57263	
2.58026	
2.57874	
2.58026	
2.58026	
2.58026	
2.57874	
2.57874	
2.58331	
2.57874	
2.58026	
2.57874	
2.57874	
2.57568	
2.57568	
2.57568	
2.57416	
2.57263	
2.57721	
2.57874	
2.57874	
2.58179	
2.58026	
2.58026	
2.57721	
2.58026	
2.58179	
2.57874	
2.57721	
2.57416	
2.57568	
2.57721	
2.57568	
2.57111	
2.57721	
2.57568	
2.58179	
2.58331	
2.58026	
2.57721	
2.57874	
2.57874	
2.57721	
2.57874	
2.57874	
2.57874	
2.58026	
2.58026	
2.58179	
2.58026	
2.57874	
2.58026	
2.58636	
2.59094	
2.59094	
2.59399	
2.60315	
2.6062	
2.61078	
2.60925	
2.60925	
2.60773	
2.6062	
2.59857	
2.59247	
2.58636	
2.58179	
2.57568	
2.58179	
2.57721	
2.57263	
2.57416	
2.57263	
2.56805	
2.56653	
2.57568	
2.57721	
2.57721	
2.57721	
2.57874	
2.57721	
2.57416	
2.57874	
2.57568	
2.58789	
2.59247	
2.59247	
2.58484	
2.58789	
2.58484	
2.57568	
2.57416	
2.57263	
2.56653	
2.565	
2.56042	
2.56195	
2.56042	
2.5589	
2.55585	
2.5589	
2.56195	
2.565	
2.57416	
2.57416	
2.57416	
2.57416	
2.56805	
2.57721	
2.57721	
2.58179	
2.58026	
2.58179	
2.58179	
2.58026	
2.58331	
2.58179	
2.58331	
2.58179	
2.58636	
2.58484	
2.58484	
2.58026	
2.57874	
2.58179	
2.58179	
2.58026	
2.58026	
2.57874	
2.58026	
2.57874	
2.57416	
2.57721	
2.57568	
2.57874	
2.57874	
2.58026	
2.57874	
2.57721	
2.58179	
2.58026	
2.58179	
2.58484	
2.58942	
2.58636	
2.58331	
2.58484	
2.58179	
2.58331	
2.58331	
2.57721	
2.57874	
2.57874	
2.57721	
2.57416	
2.56805	
2.56805	
2.56653	
2.57111	
2.56653	
2.57263	
2.57111	
2.57721	
2.57416	
2.57568	
2.57568	
2.58789	
2.59247	
2.59705	
2.59399	
2.59552	
2.59552	
2.58942	
2.58331	
2.58026	
2.58636	
2.58484	
2.58026	
2.57568	
2.57568	
2.57111	
2.56653	
2.56653	
2.57874	
2.57874	
2.58331	
2.58636	
2.58484	
2.58026	
2.57568	
2.57416	
2.56653	
2.56348	
2.56348	
2.56195	
2.55737	
2.5589	
2.5589	
2.5589	
2.55585	
2.5528	
2.5589	
2.56195	
2.565	
2.56805	
2.57263	
2.57263	
2.57263	
2.57416	
2.57568	
2.57874	
2.57416	
2.57416	
2.57263	
2.57263	
2.56805	
2.56805	
2.56805	
2.57111	
2.57416	
2.57416	
2.57263	
2.56805	
2.57111	
2.57111	
2.57111	
2.57111	
2.57416	
2.57416	
2.57263	
2.56805	
2.565	
2.56805	
2.56805	
2.57568	
2.57874	
2.58026	
2.58026	
2.57874	
2.58179	
2.58179	
2.58026	
2.57874	
2.57721	
2.57568	
2.57111	
2.57263	
2.57263	
2.57111	
2.56653	
2.56195	
2.56653	
2.57263	
2.56805	
2.56653	
2.57111	
2.57111	
2.56653	
2.57263	
2.57111	
2.57263	
2.57263	
2.565	
2.56805	
2.57263	
2.56653	
2.565	
2.56195	
2.56805	
2.57111	
2.57111	
2.57416	
2.57111	
2.57111	
2.57111	
2.58484	
2.60162	
2.6062	
2.60925	
2.61078	
2.60315	
2.59552	
2.58942	
2.58942	
2.58331	
2.57416	
2.57263	
2.57416	
2.56348	
2.55737	
2.55127	
2.54822	
2.55127	
2.55127	
2.55127	
2.55737	
2.5589	
2.5589	
2.5589	
2.55737	
2.55585	
2.5589	
2.56195	
2.56348	
2.56653	
2.56805	
2.565	
2.56195	
2.56348	
2.56348	
2.565	
2.565	
2.565	
2.56653	
2.57263	
2.57263	
2.57263	
2.57263	
2.57721	
2.57568	
2.57568	
2.57263	
2.57416	
2.57111	
2.56653	
2.57416	
2.57111	
2.57111	
2.565	
2.56805	
2.56653	
2.56653	
2.56805	
2.56653	
2.57263	
2.57568	
2.57568	
2.57263	
2.57263	
2.565	
2.56653	
2.56653	
2.57111	
2.57263	
2.57263	
2.56653	
2.57111	
2.57263	
2.56653	
2.56805	
2.56042	
2.57111	
2.57721	
2.57721	
2.57721	
2.57721	
2.57874	
2.58179	
2.58179	
2.58179	
2.58179	
2.58026	
2.57416	
2.57416	
2.57416	
2.57111	
2.565	
2.56348	
2.56805	
2.57111	
2.565	
2.56653	
2.56348	
2.56348	
2.56348	
2.57111	
2.57111	
2.56805	
2.57111	
2.56348	
2.565	
2.565	
2.57721	
2.58179	
2.58484	
2.58789	
2.58942	
2.58942	
2.58942	
2.58331	
2.58331	
2.58179	
2.58026	
2.58179	
2.58331	
2.58331	
2.58331	
2.58026	
2.57568	
2.57568	
2.56653	
2.56653	
2.56805	
2.56653	
2.56195	
2.56042	
2.56042	
2.5589	
2.56195	
2.55585	
2.55737	
2.55737	
2.55585	
2.5589	
2.56042	
2.5589	
2.5589	
2.56042	
2.56042	
2.56348	
2.56348	
2.56348	
2.56042	
2.56348	
2.56195	
2.565	
2.56348	
2.565	
2.56653	
2.565	
2.56653	
2.56348	
2.565	
2.56042	
2.565	
2.565	
2.56653	
2.56805	
2.565	
2.56348	
2.56195	
2.56348	
2.56805	
2.57111	
2.56805	
2.56348	
2.56805	
2.57416	
2.56805	
2.57263	
2.57263	
2.57721	
2.57874	
2.57416	
2.57416	
2.57111	
2.56042	
2.56042	
2.56042	
2.56195	
2.56195	
2.5589	
2.55737	
2.55585	
2.55737	
2.55737	
2.5528	
2.56195	
2.56195	
2.56653	
2.56653	
2.56348	
2.56042	
2.5589	
2.5589	
2.56195	
2.56195	
2.56195	
2.56348	
2.56195	
2.56042	
2.56042	
2.56653	
2.57111	
2.57874	
2.57874	
2.58179	
2.58179	
2.57721	
2.57416	
2.57111	
2.56805	
2.56042	
2.56195	
2.55585	
2.5528	
2.54822	
2.54822	
2.54669	
2.54517	
2.54669	
2.55432	
2.5589	
2.55737	
2.565	
2.56195	
2.565	
2.56348	
2.56195	
2.57111	
2.57721	
2.57416	
2.57111	
2.57111	
2.565	
2.56348	
2.5589	
2.55432	
2.55127	
2.55127	
2.54974	
2.54822	
2.54364	
2.54364	
2.54517	
2.54364	
2.54669	
2.54974	
2.55127	
2.5528	
2.55127	
2.5528	
2.5528	
2.55127	
2.5528	
2.55127	
2.55432	
2.55585	
2.54974	
2.54974	
2.55127	
2.54822	
2.54669	
2.5528	
2.5528	
2.54669	
2.54974	
2.5528	
2.54669	
2.54974	
2.54517	
2.54517	
2.55432	
2.5589	
2.56042	
2.5589	
2.55737	
2.5589	
2.56195	
2.56348	
2.5589	
2.5589	
2.5528	
2.55127	
2.55127	
2.54669	
2.54517	
2.54059	
2.54211	
2.54364	
2.54822	
2.54517	
2.54364	
2.54211	
2.54364	
2.5528	
2.565	
2.56195	
2.565	
2.5589	
2.55585	
2.5589	
2.55585	
2.54822	
2.54364	
2.54364	
2.54517	
2.54364	
2.53754	
2.53296	
2.53296	
2.53601	
2.54517	
2.56042	
2.565	
2.57263	
2.57263	
2.57111	
2.56348	
2.56042	
2.55737	
2.55432	
2.54974	
2.54669	
2.55127	
2.54211	
2.53448	
2.52838	
2.52991	
2.52991	
2.52838	
2.52838	
2.52686	
2.52686	
2.53296	
2.52991	
2.53601	
2.53296	
2.54211	
2.54517	
2.54517	
2.54517	
2.54517	
2.54669	
2.54517	
2.54211	
2.54517	
2.54211	
2.54059	
2.53143	
2.53143	
2.53296	
2.53448	
2.53296	
2.53754	
2.54211	
2.54211	
2.54211	
2.54517	
2.54059	
2.54517	
2.5589	
2.57263	
2.57874	
2.57721	
2.57111	
2.56805	
2.56195	
2.55585	
2.55585	
2.54974	
2.54822	
2.55127	
2.54822	
2.54822	
2.54364	
2.53448	
2.53143	
2.53296	
2.52991	
2.53296	
2.53601	
2.54517	
2.54974	
2.55432	
2.54974	
2.55127	
2.54669	
2.54364	
2.54517	
2.54974	
2.54211	
2.52991	
2.52991	
2.52991	
2.5238	
2.52075	
2.52075	
2.52228	
2.5238	
2.51617	
2.52075	
2.51923	
2.52075	
2.52533	
2.51923	
2.52228	
2.52075	
2.52228	
2.52075	
2.52075	
2.52228	
2.52075	
2.52228	
2.5238	
2.52533	
2.5238	
2.53143	
2.52533	
2.52686	
2.53296	
2.53754	
2.54669	
2.54669	
2.54974	
2.54822	
2.54517	
2.54364	
2.54364	
2.54517	
2.54517	
2.54364	
2.54364	
2.54211	
2.54211	
2.54211	
2.54211	
2.54211	
2.54517	
2.54517	
2.54822	
2.54822	
2.54364	
2.54059	
2.54211	
2.53754	
2.53448	
2.53601	
2.53296	
2.52686	
2.52533	
2.52075	
2.52228	
2.52991	
2.54822	
2.5528	
2.5528	
2.5528	
2.54974	
2.54211	
2.53601	
2.53601	
2.52991	
2.52838	
2.52991	
2.52686	
2.5238	
2.52228	
2.52228	
2.52075	
2.52838	
2.53601	
2.54517	
2.55585	
2.56042	
2.56805	
2.56805	
2.57111	
2.56805	
2.56653	
2.56195	
2.55737	
2.54974	
2.54974	
2.54822	
2.53754	
2.53754	
2.53143	
2.52533	
2.51617	
2.52533	
2.52686	
2.52838	
2.54364	
2.54822	
2.54822	
2.55432	
2.55127	
2.55585	
2.55585	
2.55585	
2.54974	
2.54364	
2.53601	
2.52838	
2.5238	
2.5177	
2.5177	
2.51617	
2.51617	
2.51312	
2.51312	
2.51617	
2.51465	
2.52228	
2.52228	
2.53143	
2.53601	
2.54211	
2.54822	
2.54669	
2.54517	
2.54364	
2.53754	
2.53296	
2.52991	
2.52533	
2.51923	
2.5177	
2.5177	
2.51465	
2.51312	
2.50854	
2.50397	
2.51312	
2.5116	
2.52075	
2.5238	
2.52686	
2.53448	
2.53754	
2.54364	
2.54669	
2.55432	
2.56195	
2.56195	
2.57111	
2.56653	
2.56195	
2.56195	
2.56042	
2.55127	
2.54364	
2.53296	
2.53754	
2.53296	
2.52838	
2.52075	
2.51923	
2.52075	
2.52228	
2.5238	
2.5238	
2.52838	
2.52686	
2.53601	
2.54059	
2.54517	
2.54211	
2.54517	
2.54364	
2.54517	
2.54211	
2.53448	
2.53448	
2.53296	
2.52686	
2.5177	
2.5238	
2.51923	
2.52228	
2.52686	
2.52686	
2.52991	
2.52533	
2.53296	
2.54059	
2.54211	
2.54822	
2.5528	
2.55737	
2.55432	
2.54669	
2.54211	
2.53754	
2.53143	
2.53296	
2.53296	
2.53143	
2.52686	
2.52533	
2.52228	
2.52075	
2.5116	
2.51923	
2.52228	
2.53754	
2.54822	
2.54669	
2.54517	
2.54211	
2.54364	
2.53448	
2.53448	
2.53143	
2.52533	
2.52686	
2.52533	
2.52228	
2.52533	
2.52228	
2.5238	
2.52228	
2.52228	
2.5238	
2.5238	
2.52686	
2.52838	
2.52991	
2.53601	
2.54364	
2.54211	
2.54211	
2.54211	
2.53754	
2.53754	
2.53754	
2.54974	
2.5528	
2.54822	
2.55432	
2.55585	
2.55127	
2.54822	
2.54211	
2.53601	
2.53754	
2.52838	
2.52533	
2.53143	
2.53754	
2.54059	
2.5528	
2.55585	
2.55432	
2.55432	
2.54822	
2.54822	
2.53754	
2.52838	
2.5238	
2.52533	
2.51465	
2.5177	
2.51617	
2.51007	
2.51007	
2.51007	
2.50397	
2.50549	
2.5116	
2.5177	
2.52686	
2.53143	
2.53448	
2.52838	
2.53143	
2.52228	
2.52686	
2.52686	
2.52533	
2.52838	
2.52686	
2.53143	
2.52991	
2.52838	
2.52838	
2.52991	
2.53143	
2.53296	
2.53448	
2.52686	
2.52075	
2.5238	
2.52533	
2.5238	
2.52686	
2.52228	
2.52686	
2.52686	
2.52686	
2.52991	
2.52991	
2.5238	
2.52838	
2.53143	
2.53601	
2.54059	
2.54211	
2.53601	
2.53754	
2.54211	
2.54059	
2.54974	
2.55737	
2.5528	
2.55585	
2.5528	
2.54364	
2.54211	
2.54059	
2.54059	
2.54517	
2.54364	
2.54364	
2.54211	
2.53754	
2.54364	
2.54669	
2.54669	
2.54974	
2.55585	
2.55585	
2.55737	
2.54974	
2.54974	
2.54211	
2.54059	
2.53754	
2.52991	
2.5177	
2.51617	
2.50549	
2.50854	
2.5116	
2.5116	
2.51007	
2.50549	
2.50854	
2.51617	
2.52533	
2.52838	
2.52991	
2.53143	
2.54059	
2.53754	
2.54211	
2.54059	
2.54059	
2.54517	
2.54211	
2.54059	
2.53296	
2.53601	
2.53448	
2.52686	
2.52686	
2.53448	
2.53448	
2.53448	
2.53296	
2.53143	
2.52991	
2.52838	
2.52991	
2.53143	
2.52686	
2.52228	
2.52228	
2.52075	
2.52228	
2.51923	
2.51617	
2.51312	
2.51007	
2.50854	
2.50549	
2.51312	
2.51312	
2.51465	
2.5177	
2.51465	
2.50854	
2.51465	
2.5116	
2.50549	
2.51312	
2.5116	
2.51312	
2.51007	
2.52075	
2.52991	
2.52991	
2.52991	
2.53143	
2.53448	
2.53296	
2.52686	
2.52686	
2.52533	
2.52075	
2.52533	
2.52686	
2.5238	
2.5177	
2.5116	
2.51312	
2.51465	
2.51007	
2.50854	
2.51007	
2.51465	
2.51617	
2.5177	
2.51617	
2.51617	
2.51465	
2.51465	
2.52075	
2.5177	
2.51923	
2.5177	
2.51617	
2.51465	
2.51312	
2.51007	
2.50854	
2.5116	
2.5116	
2.51617	
2.5177	
2.51617	
2.51312	
2.51617	
2.51465	
2.51312	
2.51465	
2.51465	
2.51312	
2.51923	
2.51617	
2.52533	
2.52838	
2.52838	
2.53448	
2.53754	
2.53754	
2.54669	
2.54974	
2.54822	
2.54669	
2.54822	
2.54517	
2.54517	
2.53448	
2.52228	
2.52075	
2.51465	
2.50549	
2.49786	
2.49176	
2.48871	
2.48871	
2.49786	
2.50854	
2.50549	
2.5116	
2.51465	
2.51617	
2.51617	
2.51312	
2.51312	
2.50854	
2.50397	
2.50244	
2.50244	
2.49176	
2.50092	
2.50244	
2.51007	
2.51923	
2.52838	
2.52838	
2.52991	
2.53143	
2.52991	
2.52991	
2.52533	
2.51617	
2.51617	
2.50549	
2.49939	
2.49329	
2.48413	
2.48108	
2.47803	
2.48413	
2.48413	
2.48413	
2.4826	
2.4826	
2.49023	
2.49023	
2.48871	
2.49329	
2.49329	
2.49634	
2.50092	
2.49786	
2.49634	
2.50092	
2.49939	
2.50397	
2.50397	
2.50244	
2.50092	
2.49786	
2.49481	
2.49481	
2.49939	
2.49329	
2.49786	
2.49634	
2.49481	
2.49176	
2.49176	
2.49481	
2.50244	
2.50549	
2.50549	
2.51465	
2.51617	
2.51007	
2.50397	
2.50244	
2.50092	
2.50397	
2.50244	
2.49786	
2.49329	
2.49023	
2.49176	
2.50092	
2.49023	
2.49634	
2.49176	
2.49481	
2.49023	
2.49634	
2.49786	
2.49634	
2.49786	
2.49939	
2.50397	
2.51617	
2.51923	
2.52533	
2.53296	
2.53448	
2.53754	
2.54059	
2.54364	
2.54364	
2.54211	
2.52838	
2.52533	
2.51923	
2.5116	
2.50397	
2.49786	
2.48413	
2.47955	
2.47192	
2.46582	
2.45667	
2.45972	
2.45361	
2.45667	
2.46429	
2.4704	
2.47345	
2.47803	
2.49634	
2.51923	
2.5238	
2.52991	
2.52686	
2.51923	
2.5116	
2.51007	
2.50549	
2.49786	
2.49176	
2.48413	
2.48108	
2.47955	
2.47803	
2.46887	
2.46582	
2.46582	
2.46429	
2.46887	
2.48108	
2.48108	
2.48108	
2.48413	
2.48108	
2.48718	
2.48566	
2.49481	
2.49786	
2.50092	
2.50397	
2.49939	
2.49939	
2.49481	
2.49634	
2.49176	
2.49176	
2.49176	
2.48871	
2.48566	
2.47955	
2.48413	
2.49023	
2.48871	
2.48108	
2.47498	
2.47803	
2.48108	
2.4826	
2.48413	
2.4826	
2.4826	
2.48413	
2.48413	
2.49176	
2.49481	
2.49786	
2.49786	
2.49634	
2.49786	
2.49634	
2.49329	
2.49481	
2.49329	
2.49176	
2.48871	
2.49023	
2.48871	
2.4826	
2.4826	
2.4826	
2.48566	
2.48566	
2.48718	
2.48566	
2.48413	
2.4826	
2.4826	
2.4826	
2.48566	
2.48566	
2.48718	
2.49023	
2.48413	
2.48871	
2.48566	
2.49329	
2.48871	
2.48871	
2.49023	
2.49176	
2.49023	
2.48871	
2.49176	
2.49939	
2.50549	
2.50854	
2.50854	
2.50397	
2.50397	
2.50244	
2.49786	
2.49786	
2.49939	
2.49786	
2.50244	
2.49786	
2.49329	
2.49634	
2.49634	
2.49634	
2.49023	
2.49329	
2.50854	
2.51617	
2.51617	
2.52075	
2.51617	
2.51007	
2.50549	
2.49786	
2.49481	
2.49023	
2.48718	
2.4826	
2.47192	
2.46887	
2.4704	
2.46735	
2.47345	
2.47803	
2.48108	
2.48413	
2.4826	
2.48871	
2.48718	
2.49481	
2.49329	
2.49023	
2.48871	
2.48871	
2.4826	
2.47803	
2.47803	
2.47192	
2.47803	
2.48108	
2.4826	
2.4826	
2.48718	
2.48566	
2.48413	
2.49023	
2.49481	
2.49786	
2.49329	
2.49176	
2.49023	
2.48871	
2.49329	
2.48871	
2.48413	
2.48718	
2.48871	
2.48718	
2.48718	
2.48108	
2.47955	
2.4826	
2.47955	
2.47192	
2.47803	
2.47803	
2.48108	
2.4826	
2.47955	
2.48108	
2.47955	
2.4826	
2.48718	
2.48871	
2.48871	
2.48718	
2.49023	
2.49023	
2.48718	
2.49023	
2.49023	
2.48718	
2.48108	
2.47955	
2.4826	
2.48108	
2.48108	
2.48108	
2.49329	
2.49329	
2.49634	
2.49786	
2.50244	
2.49939	
2.50854	
2.51465	
2.51007	
2.50854	
2.50092	
2.49481	
2.48871	
2.4826	
2.47345	
2.48566	
2.4826	
2.49176	
2.48718	
2.48718	
2.48718	
2.47955	
2.47498	
2.47192	
2.48108	
2.4826	
2.48566	
2.48566	
2.48413	
2.48566	
2.47955	
2.47955	
2.48108	
2.48108	
2.48413	
2.48566	
2.47955	
2.47803	
2.47345	
2.47498	
2.4704	
2.47803	
2.47345	
2.47345	
2.47192	
2.47345	
2.46887	
2.4704	
2.46887	
2.4704	
2.47803	
2.47955	
2.48413	
2.48566	
2.48566	
2.48718	
2.48871	
2.49634	
2.49786	
2.50092	
2.50244	
2.49939	
2.49634	
2.49176	
2.48718	
2.48413	
2.47803	
2.47345	
2.46277	
2.46124	
2.45667	
2.45514	
2.45056	
2.44904	
2.45209	
2.45056	
2.45514	
2.46124	
2.45667	
2.45972	
2.45972	
2.46277	
2.46429	
2.45972	
2.46429	
2.46887	
2.46735	
2.4704	
2.4704	
2.47345	
2.47498	
2.47803	
2.47803	
2.47803	
2.47955	
2.48108	
2.48413	
2.47498	
2.47498	
2.4704	
2.47345	
2.47192	
2.47192	
2.4704	
2.47345	
2.46582	
2.46582	
2.46277	
2.46277	
2.46735	
2.46582	
2.46429	
2.46582	
2.46887	
2.46887	
2.46735	
2.46582	
2.46887	
2.47192	
2.4704	
2.47192	
2.47192	
2.47192	
2.46887	
2.46887	
2.46582	
2.46887	
2.47192	
2.46735	
2.4704	
2.46887	
2.47345	
2.48718	
2.49023	
2.49176	
2.48871	
2.48566	
2.48413	
2.48108	
2.47345	
2.4704	
2.4704	
2.4704	
2.47498	
2.48718	
2.48718	
2.49939	
2.49939	
2.49634	
2.49329	
2.49329	
2.48871	
2.48718	
2.48108	
2.47955	
2.47803	
2.4704	
2.47192	
2.46735	
2.46735	
2.46124	
2.46429	
2.46735	
2.46735	
2.46277	
2.46582	
2.46124	
2.46124	
2.46429	
2.46582	
2.47192	
2.46735	
2.46887	
2.46582	
2.46582	
2.46735	
2.47192	
2.47498	
2.46735	
2.4704	
2.47192	
2.4704	
2.46429	
2.45972	
2.46429	
2.4704	
2.4704	
2.47192	
2.46582	
2.46582	
2.45972	
2.46277	
2.46429	
2.46735	
2.4704	
2.47345	
2.47803	
2.47803	
2.47345	
2.47955	
2.48108	
2.48566	
2.48871	
2.49023	
2.49023	
2.48718	
2.48871	
2.48413	
2.48718	
2.48566	
2.48718	
2.47803	
2.47498	
2.4704	
2.46582	
2.45972	
2.45361	
2.45819	
2.45972	
2.45667	
2.45514	
2.45514	
2.45667	
2.45667	
2.45819	
2.46124	
2.46429	
2.46582	
2.45972	
2.46277	
2.46429	
2.46124	
2.46429	
2.45972	
2.46582	
2.4704	
2.47192	
2.46887	
2.46887	
2.46887	
2.46887	
2.46887	
2.46887	
2.46887	
2.4704	
2.46887	
2.46735	
2.46429	
2.46887	
2.46124	
2.4704	
2.46887	
2.46887	
2.47345	
2.47192	
2.46735	
2.4704	
2.46429	
2.47192	
2.48108	
2.48566	
2.48718	
2.48566	
2.48718	
2.47803	
2.47955	
2.47955	
2.47498	
2.47192	
2.4704	
2.46735	
2.46582	
2.46277	
2.46124	
2.45667	
2.45361	
2.45667	
2.45514	
2.45667	
2.45972	
2.46735	
2.47803	
2.48413	
2.48108	
2.48413	
2.48413	
2.47955	
2.47498	
2.46887	
2.46887	
2.46582	
2.45667	
2.45972	
2.46277	
2.46277	
2.45667	
2.44904	
2.45056	
2.45972	
2.45819	
2.45667	
2.46277	
2.46277	
2.46582	
2.46429	
2.46124	
2.46582	
2.4704	
2.47192	
2.48108	
2.47955	
2.48108	
2.48413	
2.48718	
2.49176	
2.48718	
2.49176	
2.49023	
2.49176	
2.48871	
2.48871	
2.48413	
2.47498	
2.47192	
2.47498	
2.47192	
2.46887	
2.46124	
2.45972	
2.45209	
2.45514	
2.45819	
2.45972	
2.46735	
2.46735	
2.47803	
2.47803	
2.47498	
2.47345	
2.47192	
2.46735	
2.4704	
2.47192	
2.4704	
2.46582	
2.45972	
2.45361	
2.44751	
2.44904	
2.44293	
2.44751	
2.45056	
2.45209	
2.45361	
2.44904	
2.45361	
2.45514	
2.45209	
2.45514	
2.45819	
2.45667	
2.45514	
2.45361	
2.45667	
2.45667	
2.46582	
2.47192	
2.47803	
2.47955	
2.4826	
2.48413	
2.48108	
2.47803	
2.47345	
2.47345	
2.47192	
2.4704	
2.46735	
2.45972	
2.45819	
2.45361	
2.45056	
2.44293	
2.44293	
2.44904	
2.45056	
2.45209	
2.45667	
2.45361	
2.45972	
2.45361	
2.46429	
2.47192	
2.4704	
2.46735	
2.46277	
2.46429	
2.45514	
2.45819	
2.45667	
2.45819	
2.46277	
2.45972	
2.46124	
2.45361	
2.45056	
2.44904	
2.45209	
2.45209	
2.45819	
2.45819	
2.45972	
2.46124	
2.46735	
2.46429	
2.46582	
2.46735	
2.46735	
2.46887	
2.47192	
2.47345	
2.4704	
2.46887	
2.46429	
2.46582	
2.46429	
2.46582	
2.46887	
2.4704	
2.46582	
2.47192	
2.47192	
2.4704	
2.46887	
2.46887	
2.46582	
2.46582	
2.46429	
2.45972	
2.46124	
2.45667	
2.45667	
2.46124	
2.46277	
2.46277	
2.45667	
2.45667	
2.45667	
2.45209	
2.44751	
2.45361	
2.44904	
2.44904	
2.44751	
2.44751	
2.44293	
2.44293	
2.44141	
2.44293	
2.44751	
2.45056	
2.45209	
2.45209	
2.45819	
2.45361	
2.46277	
2.46429	
2.46582	
2.46887	
2.46735	
2.46429	
2.45667	
2.45514	
2.45209	
2.45209	
2.45056	
2.45056	
2.45056	
2.44904	
2.44904	
2.45056	
2.44751	
2.45361	
2.45361	
2.45361	
2.45819	
2.46429	
2.47345	
2.46887	
2.47192	
2.4704	
2.46887	
2.46735	
2.46277	
2.46124	
2.45514	
2.45209	
2.45361	
2.45514	
2.45514	
2.45361	
2.45209	
2.45209	
2.45209	
2.45361	
2.45361	
2.45209	
2.45514	
2.45056	
2.45361	
2.46887	
2.4704	
2.47345	
2.46887	
2.46429	
2.46124	
2.45819	
2.45667	
2.45819	
2.45361	
2.45972	
2.45972	
2.46124	
2.45667	
2.44904	
2.44904	
2.45514	
2.45819	
2.45972	
2.45667	
2.46124	
2.45361	
2.45667	
2.45667	
2.45667	
2.45819	
2.45972	
2.46277	
2.46582	
2.47192	
2.47192	
2.47498	
2.4826	
2.47955	
2.47192	
2.46735	
2.46277	
2.45667	
2.45667	
2.45056	
2.44751	
2.44446	
2.43988	
2.43988	
2.4353	
2.43835	
2.44141	
2.44446	
2.44446	
2.44904	
2.44751	
2.44904	
2.44904	
2.45209	
2.45361	
2.45514	
2.45819	
2.45514	
2.45514	
2.45667	
2.45361	
2.45056	
2.45056	
2.45819	
2.45972	
2.45819	
2.45819	
2.45667	
2.45056	
2.45209	
2.45209	
2.45056	
2.44141	
2.44293	
2.44293	
2.44751	
2.44751	
2.45361	
2.45667	
2.46277	
2.46735	
2.4704	
2.47192	
2.47345	
2.47955	
2.46887	
2.46429	
2.45819	
2.45361	
2.45361	
2.45056	
2.44141	
2.43988	
2.43683	
2.4353	
2.4353	
2.43378	
2.43683	
2.44141	
2.45514	
2.45361	
2.44446	
2.44293	
2.45972	
2.45361	
2.45819	
2.46582	
2.46887	
2.47345	
2.47498	
2.47498	
2.47803	
2.47192	
2.46735	
2.46429	
2.46124	
2.45972	
2.45514	
2.44751	
2.44141	
2.43988	
2.43835	
2.43988	
2.43683	
2.43683	
2.44141	
2.44751	
2.45209	
2.44293	
2.44751	
2.45056	
2.45209	
2.45361	
2.45056	
2.45514	
2.45361	
2.44446	
2.45056	
2.45819	
2.45667	
2.46124	
2.46277	
2.46124	
2.46429	
2.46429	
2.45819	
2.45056	
2.45361	
2.46124	
2.4704	
2.46735	
2.45667	
2.44904	
2.44904	
2.43683	
2.42615	
2.42615	
2.41852	
2.42462	
2.42615	
2.42462	
2.42157	
2.42462	
2.41852	
2.42157	
2.4231	
2.42615	
2.43225	
2.4292	
2.43378	
2.43378	
2.4353	
2.43378	
2.43225	
2.43683	
2.44141	
2.43988	
2.44141	
2.43073	
2.4353	
2.4353	
2.4353	
2.43835	
2.43988	
2.43835	
2.43378	
2.43378	
2.4353	
2.4353	
2.4353	
2.4353	
2.4353	
2.43683	
2.43835	
2.44141	
2.43835	
2.43835	
2.43988	
2.44293	
2.44446	
2.45514	
2.45361	
2.46277	
2.47345	
2.47192	
2.46582	
2.46887	
2.46582	
2.46277	
2.45819	
2.45056	
2.44293	
2.43683	
2.43073	
2.42767	
2.42004	
2.41547	
2.41241	
2.41547	
2.42767	
2.43683	
2.44141	
2.44904	
2.45514	
2.46124	
2.47803	
2.47803	
2.48108	
2.4704	
2.46735	
2.45667	
2.44141	
2.43835	
2.43073	
2.4231	
2.41699	
2.42004	
2.42157	
2.42615	
2.42004	
2.42004	
2.41852	
2.41852	
2.42157	
2.41852	
2.42004	
2.42004	
2.41852	
2.41089	
2.41089	
2.41241	
2.40936	
2.41089	
2.40936	
2.40784	
2.41699	
2.42157	
2.4231	
2.42462	
2.42767	
2.42615	
2.43225	
2.42615	
2.42767	
2.42767	
2.43073	
2.4292	
2.42462	
2.42157	
2.42004	
2.41547	
2.41547	
2.41699	
2.42462	
2.42767	
2.4292	
2.43073	
2.43073	
2.4231	
2.43073	
2.43225	
2.43225	
2.44751	
2.45667	
2.45361	
2.45209	
2.45056	
2.44293	
2.44446	
2.44141	
2.44141	
2.43683	
2.4292	
2.42157	
2.41852	
2.42004	
2.41699	
2.42157	
2.43225	
2.45209	
2.46124	
2.46887	
2.47192	
2.47345	
2.46582	
2.46582	
2.46277	
2.46277	
2.46582	
2.45819	
2.44904	
2.43683	
2.42004	
2.40479	
2.40021	
2.3941	
2.38647	
2.38647	
2.38037	
2.38647	
2.38953	
2.38647	
2.38495	
2.38647	
2.38953	
2.388	
2.39258	
2.40326	
2.40173	
2.40326	
2.40631	
2.40326	
2.41089	
2.41547	
2.41241	
2.42004	
2.41699	
2.41699	
2.42615	
2.42157	
2.4292	
2.42462	
2.42462	
2.43073	
2.4292	
2.42767	
2.42767	
2.42767	
2.42462	
2.42767	
2.42615	
2.42462	
2.4231	
2.42615	
2.42767	
2.42767	
2.43835	
2.44141	
2.45514	
2.46429	
2.46429	
2.45972	
2.45819	
2.45361	
2.45819	
2.45361	
2.45972	
2.46124	
2.45361	
2.44904	
2.44446	
2.43988	
2.43683	
2.43073	
2.42615	
2.42157	
2.41699	
2.42004	
2.41241	
2.41241	
2.41089	
2.41699	
2.42615	
2.42767	
2.4353	
2.45209	
2.45361	
2.45972	
2.4704	
2.46887	
2.47345	
2.47192	
2.46887	
2.46429	
2.45514	
2.44141	
2.43225	
2.4292	
2.42157	
2.43073	
2.42767	
2.4231	
2.41852	
2.41547	
2.40631	
2.40631	
2.41699	
2.4231	
2.42462	
2.4231	
2.42615	
2.4292	
2.42767	
2.42615	
2.4353	
2.43683	
2.43835	
2.43835	
2.43683	
2.43225	
2.43225	
2.43378	
2.43073	
2.43225	
2.4292	
2.42767	
2.42615	
2.42767	
2.4231	
2.42157	
2.42157	
2.41852	
2.42767	
2.43073	
2.4292	
2.43225	
2.4353	
2.4353	
2.43683	
2.43225	
2.43988	
2.43378	
2.43988	
2.4353	
2.43073	
2.4292	
2.42615	
2.42767	
2.42767	
2.43378	
2.43683	
2.45056	
2.45667	
2.45972	
2.45819	
2.45819	
2.45972	
2.45819	
2.45361	
2.44904	
2.44141	
2.4353	
2.43073	
2.42615	
2.42462	
2.42004	
2.41547	
2.40936	
2.40631	
2.41241	
2.40784	
2.41089	
2.41852	
2.41852	
2.42462	
2.42615	
2.43073	
2.44904	
2.46124	
2.46582	
2.46887	
2.46735	
2.47192	
2.46887	
2.46277	
2.45667	
2.44904	
2.44293	
2.43835	
2.42615	
2.42462	
2.41852	
2.41241	
2.41089	
2.40479	
2.41241	
2.40936	
2.40936	
2.40936	
2.41547	
2.41547	
2.41241	
2.41852	
2.42157	
2.42615	
2.4292	
2.43073	
2.43378	
2.43225	
2.44141	
2.44446	
2.43683	
2.43835	
2.43683	
2.43988	
2.44446	
2.44751	
2.44904	
2.45209	
2.45819	
2.45056	
2.45056	
2.44751	
2.44904	
2.44141	
2.4353	
2.44141	
2.45209	
2.45361	
2.45056	
2.44904	
2.44751	
2.44904	
2.43683	
2.43073	
2.42615	
2.42462	
2.42004	
2.41547	
2.40784	
2.40631	
2.40784	
2.42157	
2.4292	
2.43073	
2.43225	
2.43225	
2.42767	
2.43073	
2.43683	
2.43683	
2.43835	
2.43378	
2.43073	
2.4231	
2.42462	
2.42004	
2.41547	
2.40936	
2.42004	
2.42462	
2.42767	
2.4231	
2.42767	
2.4353	
2.43988	
2.44293	
2.44141	
2.43378	
2.4292	
2.42462	
2.42615	
2.41852	
2.41699	
2.4231	
2.42157	
2.42615	
2.42462	
2.41852	
2.41699	
2.41852	
2.4231	
2.42615	
2.4292	
2.43073	
2.43835	
2.44751	
2.46124	
2.47498	
2.47955	
2.48718	
2.48413	
2.4704	
2.46277	
2.45361	
2.44446	
2.43683	
2.42767	
2.42157	
2.42004	
2.40479	
2.39716	
2.39716	
2.40173	
2.40021	
2.39716	
2.40326	
2.40784	
2.41547	
2.42004	
2.41852	
2.41241	
2.41699	
2.41089	
2.41241	
2.42004	
2.42767	
2.42462	
2.42004	
2.42157	
2.41852	
2.43073	
2.42615	
2.4292	
2.43378	
2.43073	
2.43378	
2.43378	
2.42615	
2.42615	
2.42462	
2.42157	
2.42615	
2.44141	
2.45056	
2.45361	
2.45514	
2.44904	
2.44904	
2.45056	
2.45514	
2.45056	
2.44751	
2.44751	
2.44141	
2.4353	
2.4292	
2.42615	
2.41852	
2.40936	
2.40021	
2.40936	
2.41241	
2.4292	
2.42462	
2.4292	
2.42462	
2.42615	
2.43225	
2.4353	
2.43225	
2.4353	
2.4353	
2.43225	
2.42462	
2.42462	
2.41089	
2.40631	
2.40631	
2.40631	
2.40631	
2.40021	
2.39868	
2.39868	
2.40021	
2.39563	
2.40631	
2.40631	
2.40479	
2.41089	
2.41547	
2.42462	
2.43073	
2.43073	
2.42767	
2.43225	
2.4353	
2.43378	
2.43378	
2.43225	
2.42767	
2.4292	
2.42615	
2.4231	
2.41699	
2.41089	
2.41547	
2.40936	
2.40936	
2.41241	
2.40784	
2.40784	
2.40936	
2.41241	
2.41241	
2.42004	
2.41699	
2.42157	
2.4231	
2.42462	
2.42615	
2.4292	
2.44293	
2.44904	
2.45361	
2.46735	
2.47345	
2.47803	
2.47498	
2.46887	
2.45972	
2.45819	
2.45361	
2.44751	
2.44293	
2.43683	
2.43073	
2.4231	
2.41241	
2.40936	
2.40479	
2.40631	
2.40479	
2.40936	
2.41699	
2.41852	
2.41547	
2.41699	
2.42004	
2.42157	
2.42615	
2.43378	
2.43835	
2.44293	
2.43835	
2.4353	
2.43835	
2.43073	
2.4292	
2.43073	
2.42462	
2.42004	
2.41852	
2.41547	
2.40631	
2.40631	
2.40784	
2.40784	
2.40631	
2.40479	
2.40173	
2.39868	
2.40021	
2.40173	
2.40479	
2.40631	
2.40784	
2.41547	
2.42004	
2.42462	
2.4292	
2.4292	
2.4292	
2.43988	
2.43683	
2.43988	
2.44141	
2.43378	
2.4292	
2.42462	
2.4231	
2.42004	
2.41699	
2.41547	
2.40784	
2.41241	
2.42157	
2.42004	
2.42004	
2.4231	
2.42767	
2.4292	
2.42615	
2.42767	
2.42157	
2.42157	
2.4231	
2.42615	
2.42767	
2.43073	
2.43225	
2.44446	
2.45819	
2.46735	
2.46887	
2.48718	
2.50244	
2.50244	
2.50092	
2.49634	
2.49176	
2.48108	
2.47192	
2.46124	
2.45056	
2.4353	
2.42615	
2.41699	
2.40936	
2.40784	
2.40631	
2.40173	
2.39563	
2.39868	
2.40173	
2.40173	
2.40326	
2.40173	
2.39868	
2.39563	
2.39716	
2.3941	
2.39716	
2.40021	
2.40784	
2.40784	
2.41547	
2.4231	
2.43073	
2.43073	
2.44751	
2.45972	
2.46277	
2.46735	
2.46735	
2.46124	
2.45514	
2.45361	
2.44751	
2.44141	
2.43225	
2.42004	
2.40479	
2.39716	
2.39716	
2.3941	
2.38647	
2.38495	
2.37885	
2.38037	
2.38495	
2.39105	
2.3941	
2.3941	
2.39563	
2.40479	
2.40631	
2.41089	
2.40784	
2.40936	
2.40936	
2.41089	
2.40936	
2.41089	
2.41699	
2.41699	
2.41547	
2.41547	
2.40936	
2.41852	
2.4231	
2.42615	
2.44751	
2.45667	
2.46124	
2.46124	
2.46277	
2.46124	
2.45972	
2.45514	
2.44904	
2.43988	
2.43378	
2.4292	
2.41699	
2.40479	
2.39868	
2.3941	
2.38647	
2.39258	
2.39868	
2.39716	
2.40631	
2.40936	
2.41699	
2.41852	
2.42767	
2.4292	
2.43073	
2.42615	
2.4231	
2.42157	
2.41852	
2.41699	
2.42157	
2.42767	
2.42462	
2.42004	
2.41547	
2.40936	
2.40936	
2.41547	
2.41089	
2.41241	
2.41547	
2.41547	
2.41547	
2.40936	
2.40631	
2.40631	
2.40784	
2.40936	
2.42462	
2.43073	
2.4292	
2.42767	
2.42767	
2.42615	
2.4231	
2.42462	
2.42767	
2.4292	
2.42615	
2.43683	
2.44446	
2.44751	
2.44293	
2.44293	
2.44141	
2.45056	
2.44141	
2.43988	
2.43835	
2.43378	
2.43378	
2.44293	
2.44446	
2.44446	
2.43988	
2.44446	
2.44293	
2.43988	
2.44904	
2.44751	
2.43378	
2.4292	
2.42767	
2.42157	
2.40784	
2.40173	
2.3941	
2.38953	
2.3819	
2.38953	
2.388	
2.3819	
2.38953	
2.38953	
2.3941	
2.40173	
2.40479	
2.40631	
2.41241	
2.4231	
2.42615	
2.42462	
2.43225	
2.43378	
2.43988	
2.43683	
2.43683	
2.43683	
2.43225	
2.4231	
2.42004	
2.40784	
2.40326	
2.40784	
2.42004	
2.4292	
2.43225	
2.42767	
2.43073	
2.43073	
2.42462	
2.4231	
2.41699	
2.41241	
2.41241	
2.40784	
2.40173	
2.39868	
2.40631	
2.40936	
2.41241	
2.42462	
2.43683	
2.43835	
2.43683	
2.44446	
2.45514	
2.45667	
2.45361	
2.45056	
2.44751	
2.44293	
2.43835	
2.42462	
2.41241	
2.40173	
2.39105	
2.39716	
2.41089	
2.40936	
2.40784	
2.41547	
2.42157	
2.42157	
2.42615	
2.42767	
2.42767	
2.42615	
2.42462	
2.43225	
2.42615	
2.43378	
2.43988	
2.45209	
2.44904	
2.44751	
2.45056	
2.44751	
2.44751	
2.44904	
2.44751	
2.44293	
2.43835	
2.43225	
2.42615	
2.41547	
2.40936	
2.41089	
2.41241	
2.40326	
2.39105	
2.39563	
2.3941	
2.39105	
2.39258	
2.39105	
2.39258	
2.39258	
2.3941	
2.39105	
2.39258	
2.39105	
2.39258	
2.40173	
2.41241	
2.41699	
2.41852	
2.41852	
2.4231	
2.42157	
2.42157	
2.42767	
2.43683	
2.44141	
2.44904	
2.45972	
2.45819	
2.45819	
2.46124	
2.46429	
2.46735	
2.47345	
2.47345	
2.46735	
2.45514	
2.43835	
2.42462	
2.41089	
2.40479	
2.388	
2.3819	
2.38647	
2.39258	
2.40479	
2.39563	
2.40021	
2.40326	
2.40631	
2.42004	
2.4231	
2.42462	
2.42767	
2.42615	
2.43225	
2.43378	
2.43378	
2.43378	
2.43225	
2.42157	
2.4231	
2.4231	
2.42157	
2.40784	
2.41089	
2.41089	
2.41547	
2.41241	
2.40479	
2.40631	
2.42004	
2.4292	
2.42615	
2.42767	
2.4231	
2.41852	
2.42004	
2.41699	
2.41089	
2.41699	
2.42004	
2.42462	
2.43225	
2.43835	
2.44446	
2.44751	
2.45056	
2.45209	
2.46429	
2.45667	
2.45514	
2.44904	
2.44293	
2.43835	
2.43835	
2.43225	
2.4292	
2.42767	
2.4231	
2.41699	
2.41547	
2.4231	
2.42004	
2.41547	
2.42767	
2.42462	
2.42004	
2.41852	
2.41852	
2.41852	
2.42157	
2.4231	
2.42157	
2.4353	
2.43988	
2.44293	
2.44446	
2.44904	
2.44293	
2.45209	
2.45209	
2.44446	
2.44141	
2.44904	
2.43378	
2.42767	
2.4231	
2.41241	
2.41699	
2.40936	
2.40936	
2.40631	
2.40479	
2.40479	
2.41241	
2.41547	
2.41699	
2.42004	
2.42462	
2.43073	
2.4353	
2.43835	
2.4353	
2.43683	
2.43683	
2.4353	
2.43225	
2.43683	
2.44141	
2.43835	
2.44141	
2.44141	
2.43988	
2.43225	
2.42462	
2.42157	
2.42462	
2.4231	
2.43225	
2.4292	
2.4292	
2.43378	
2.43378	
2.4353	
2.43835	
2.44293	
2.43835	
2.43683	
2.43225	
2.43378	
2.43378	
2.43225	
2.42767	
2.42767	
2.42004	
2.41089	
2.40631	
2.41089	
2.40631	
2.40173	
2.40326	
2.40784	
2.40479	
2.40631	
2.41241	
2.42157	
2.4231	
2.43225	
2.43073	
2.43988	
2.45514	
2.46277	
2.47192	
2.47498	
2.47498	
2.47955	
2.47192	
2.46887	
2.45819	
2.45667	
2.44904	
2.44293	
2.43835	
2.4292	
2.41547	
2.41241	
2.41547	
2.40784	
2.40784	
2.40326	
2.41089	
2.40631	
2.40479	
2.40479	
2.40326	
2.39868	
2.40479	
2.40631	
2.42004	
2.43835	
2.44293	
2.43988	
2.44446	
2.45667	
2.46429	
2.46887	
2.47803	
2.47803	
2.4704	
2.46429	
2.45361	
2.45056	
2.44446	
2.44293	
2.45209	
2.45667	
2.45972	
2.45514	
2.44446	
2.4353	
2.43225	
2.4353	
2.4231	
2.42157	
2.41089	
2.41089	
2.40021	
2.39716	
2.388	
2.38647	
2.38647	
2.39868	
2.42157	
2.4292	
2.43988	
2.45056	
2.45667	
2.45514	
2.46277	
2.46429	
2.47803	
2.47345	
2.46582	
2.45667	
2.45209	
2.45209	
2.44141	
2.4353	
2.43683	
2.43225	
2.42157	
2.40631	
2.40479	
2.41089	
2.41547	
2.40784	
2.40479	
2.40021	
2.3941	
2.3941	
2.3941	
2.38647	
2.388	
2.38495	
2.37885	
2.37274	
2.37885	
2.37885	
2.38037	
2.39105	
2.40936	
2.4231	
2.4231	
2.43835	
2.45667	
2.46429	
2.46582	
2.46124	
2.45819	
2.45972	
2.45667	
2.45209	
2.44141	
2.43073	
2.41852	
2.40479	
2.39563	
2.388	
2.39105	
2.38495	
2.38647	
2.39258	
2.39716	
2.39716	
2.38953	
2.388	
2.3941	
2.40021	
2.39868	
2.40479	
2.40784	
2.40326	
2.40173	
2.39716	
2.39716	
2.39563	
2.39563	
2.39716	
2.40173	
2.42004	
2.43378	
2.44446	
2.46277	
2.47192	
2.48718	
2.48718	
2.48566	
2.48718	
2.47498	
2.46277	
2.45056	
2.45361	
2.43988	
2.4292	
2.42157	
2.40936	
2.39716	
2.37885	
2.36816	
2.36664	
2.36816	
2.36816	
2.37427	
2.38037	
2.38495	
2.3819	
2.3819	
2.38647	
2.39258	
2.40631	
2.42767	
2.44751	
2.46429	
2.47498	
2.47498	
2.46582	
2.45972	
2.45514	
2.44751	
2.44446	
2.43683	
2.4231	
2.41089	
2.40326	
2.3941	
2.38037	
2.37122	
2.36511	
2.36816	
2.37732	
2.38647	
2.39716	
2.39868	
2.41089	
2.42157	
2.43378	
2.43988	
2.4353	
2.43073	
2.42767	
2.4231	
2.43378	
2.44446	
2.43835	
2.4353	
2.4231	
2.42004	
2.41241	
2.40784	
2.40326	
2.39563	
2.39258	
2.3941	
2.39258	
2.38647	
2.38495	
2.37579	
2.37579	
2.37579	
2.37579	
2.37122	
2.37732	
2.3819	
2.3819	
2.37732	
2.39258	
2.40631	
2.41852	
2.42615	
2.43225	
2.43378	
2.43225	
2.4292	
2.43225	
2.43073	
2.4292	
2.42462	
2.4231	
2.42462	
2.41852	
2.40936	
2.40479	
2.39716	
2.388	
2.38647	
2.38647	
2.39563	
2.40021	
2.40173	
2.40479	
2.42004	
2.4231	
2.41241	
2.40784	
2.41089	
2.41089	
2.40631	
2.40784	
2.39868	
2.40021	
2.39563	
2.39716	
2.3941	
2.38953	
2.3819	
2.388	
2.39105	
2.39105	
2.40173	
2.39868	
2.40326	
2.40479	
2.41241	
2.41241	
2.41241	
2.40936	
2.41089	
2.42004	
2.41547	
2.42004	
2.4231	
2.42767	
2.44904	
2.45819	
2.4704	
2.46735	
2.46277	
2.46124	
2.46124	
2.45667	
2.45056	
2.44904	
2.44751	
2.44293	
2.42615	
2.42157	
2.40479	
2.40631	
2.40479	
2.40479	
2.39868	
2.40479	
2.40326	
2.40173	
2.39563	
2.39563	
2.39716	
2.39716	
2.3941	
2.38647	
2.38037	
2.37732	
2.38037	
2.3819	
2.37732	
2.37732	
2.3819	
2.39563	
2.40326	
2.40936	
2.42462	
2.42767	
2.4292	
2.42767	
2.41852	
2.40173	
2.3941	
2.39258	
2.38037	
2.37732	
2.37579	
2.36969	
2.36511	
2.38495	
2.388	
2.38953	
2.38953	
2.38647	
2.38647	
2.39258	
2.39716	
2.39868	
2.39716	
2.39716	
2.39563	
2.39716	
2.39716	
2.41241	
2.41852	
2.42462	
2.43073	
2.4353	
2.43835	
2.43835	
2.43835	
2.44141	
2.44293	
2.44141	
2.43225	
2.42767	
2.41852	
2.40479	
2.39716	
2.3941	
2.3819	
2.38647	
2.3819	
2.38037	
2.38495	
2.38037	
2.38037	
2.38953	
2.39716	
2.39868	
2.39563	
2.39716	
2.39868	
2.40021	
2.40173	
2.44141	
2.45361	
2.45819	
2.46277	
2.46887	
2.47345	
2.46582	
2.45972	
2.44904	
2.43683	
2.43683	
2.4292	
2.41852	
2.41699	
2.40936	
2.40784	
2.40326	
2.40479	
2.39868	
2.388	
2.38953	
2.39868	
2.39563	
2.39258	
2.40173	
2.40936	
2.41089	
2.39716	
2.388	
2.37732	
2.38647	
2.39258	
2.39868	
2.39868	
2.40173	
2.40021	
2.40173	
2.40631	
2.40326	
2.40021	
2.40479	
2.40021	
2.40326	
2.40326	
2.40479	
2.39868	
2.40021	
2.40936	
2.41089	
2.41699	
2.41852	
2.42004	
2.41547	
2.41241	
2.40936	
2.41089	
2.40936	
2.40784	
2.41089	
2.41852	
2.4231	
2.43225	
2.43683	
2.43988	
2.43835	
2.44751	
2.45361	
2.44293	
2.44751	
2.46124	
2.46429	
2.45667	
2.44904	
2.43835	
2.43073	
2.41852	
2.40479	
2.39868	
2.39105	
2.38647	
2.3819	
2.388	
2.39258	
2.39105	
2.3819	
2.388	
2.40021	
2.40936	
2.41089	
2.4231	
2.43225	
2.45056	
2.46124	
2.46429	
2.46277	
2.45361	
2.44141	
2.43835	
2.44293	
2.4353	
2.43225	
2.43225	
2.42004	
2.4231	
2.43225	
2.4292	
2.4292	
2.43073	
2.43988	
2.45056	
2.45056	
2.45514	
2.44904	
2.4353	
2.4292	
2.42767	
2.4231	
2.4231	
2.42157	
2.41241	
2.42004	
2.41699	
2.42004	
2.41547	
2.42004	
2.42004	
2.42157	
2.42462	
2.42157	
2.41547	
2.41852	
2.42462	
2.42615	
2.43073	
2.43073	
2.43378	
2.4353	
2.42767	
2.43225	
2.43683	
2.44141	
2.43683	
2.43988	
2.43988	
2.4353	
2.4292	
2.4353	
2.43225	
2.43073	
2.4231	
2.43073	
2.43683	
2.43225	
2.43073	
2.42462	
2.42615	
2.42004	
2.41699	
2.41547	
2.41699	
2.41852	
2.40936	
2.40479	
2.40173	
2.40326	
2.40173	
2.40784	
2.42157	
2.4292	
2.44141	
2.45056	
2.46277	
2.47955	
2.49786	
2.51923	
2.5238	
2.5238	
2.52075	
2.51007	
2.49939	
2.48566	
2.48413	
2.48413	
2.48108	
2.46124	
2.4353	
2.41241	
2.40784	
2.39563	
2.40479	
2.40173	
2.40936	
2.42462	
2.43378	
2.45056	
2.44904	
2.45209	
2.44293	
2.43988	
2.43378	
2.43835	
2.43835	
2.43073	
2.43073	
2.42157	
2.41852	
2.41241	
2.41089	
2.42004	
2.41547	
2.42157	
2.42767	
2.42157	
2.4231	
2.4353	
2.44141	
2.44904	
2.45056	
2.45209	
2.45514	
2.45819	
2.45819	
2.47345	
2.47498	
2.48718	
2.47955	
2.47192	
2.46735	
2.46887	
2.46277	
2.45209	
2.44751	
2.43988	
2.43988	
2.44141	
2.43988	
2.43225	
2.43225	
2.43378	
2.44141	
2.44751	
2.44446	
2.44904	
2.45209	
2.45056	
2.45667	
2.45361	
2.45514	
2.46124	
2.46277	
2.46429	
2.46735	
2.46124	
2.45514	
2.45209	
2.45056	
2.44446	
2.45209	
2.44904	
2.44751	
2.45209	
2.45361	
2.46582	
2.46735	
2.47192	
2.49176	
2.50244	
2.5116	
2.51617	
2.51465	
2.51465	
2.51923	
2.54059	
2.54822	
2.54059	
2.53448	
2.52533	
2.51465	
2.49939	
2.48413	
2.47192	
2.45819	
2.44751	
2.43683	
2.42462	
2.42157	
2.42767	
2.43073	
2.43683	
2.44904	
2.45667	
2.45209	
2.45667	
2.45972	
2.46735	
2.46887	
2.47498	
2.47192	
2.47803	
2.48108	
2.47803	
2.47498	
2.48566	
2.49329	
2.48871	
2.48108	
2.48108	
2.50397	
2.50854	
2.49481	
2.49176	
2.49329	
2.4826	
2.47345	
2.46735	
2.45819	
2.45819	
2.45819	
2.45209	
2.45667	
2.46124	
2.46277	
2.46735	
2.46582	
2.47345	
2.47955	
2.48718	
2.49939	
2.49634	
2.50092	
2.49481	
2.49939	
2.50244	
2.50854	
2.51465	
2.51465	
2.52686	
2.52228	
2.51007	
2.49786	
2.48566	
2.49329	
2.49023	
2.49481	
2.50244	
2.51617	
2.52991	
2.54059	
2.54974	
2.55127	
2.55432	
2.54059	
2.51617	
2.50244	
2.49023	
2.48413	
2.46887	
2.45972	
2.45361	
2.44904	
2.44446	
2.43683	
2.43683	
2.44141	
2.45361	
2.45514	
2.47345	
2.48108	
2.48566	
2.48871	
2.49023	
2.49634	
2.50092	
2.49329	
2.49786	
2.49634	
2.50244	
2.49939	
2.49481	
2.48718	
2.4826	
2.4826	
2.4826	
2.48566	
2.4826	
2.48108	
2.49176	
2.49634	
2.49939	
2.49786	
2.49786	
2.49634	
2.50092	
2.50397	
2.51007	
2.51312	
2.52075	
2.53448	
2.54822	
2.55127	
2.55737	
2.55127	
2.54211	
2.54059	
2.53143	
2.51617	
2.51007	
2.50244	
2.49481	
2.48566	
2.4826	
2.48871	
2.47345	
2.47498	
2.48566	
2.48718	
2.49481	
2.49786	
2.50549	
2.51007	
2.49939	
2.49939	
2.49023	
2.47803	
2.48108	
2.48108	
2.49023	
2.49634	
2.49634	
2.50549	
2.52533	
2.52991	
2.52991	
2.55127	
2.56042	
2.55432	
2.54059	
2.5238	
2.51312	
2.49176	
2.49023	
2.4704	
2.46429	
2.45514	
2.45209	
2.44904	
2.43835	
2.43988	
2.45056	
2.45361	
2.46429	
2.47345	
2.47803	
2.47498	
2.47498	
2.47955	
2.47803	
2.48871	
2.49481	
2.49634	
2.49176	
2.49634	
2.49786	
2.51312	
2.51465	
2.51923	
2.52686	
2.5238	
2.52228	
2.53448	
2.54059	
2.54211	
2.53754	
2.52533	
2.5238	
2.52533	
2.51465	
2.50549	
2.50549	
2.49939	
2.50549	
2.49634	
2.49481	
2.49176	
2.50397	
2.51007	
2.50397	
2.50854	
2.50397	
2.49634	
2.51312	
2.52228	
2.54211	
2.54974	
2.54517	
2.53448	
2.5238	
2.50092	
2.49329	
2.48871	
2.48413	
2.46887	
2.46124	
2.44904	
2.4292	
2.44293	
2.43835	
2.43835	
2.43988	
2.45056	
2.46582	
2.4704	
2.47345	
2.48871	
2.49481	
2.49786	
2.49634	
2.49634	
2.50854	
2.5116	
2.51465	
2.50397	
2.50854	
2.49939	
2.50854	
2.51617	
2.5116	
2.51465	
2.50854	
2.49634	
2.48566	
2.48108	
2.48566	
2.48108	
2.46735	
2.46277	
2.45972	
2.46124	
2.45819	
2.45667	
2.45667	
2.46429	
2.46735	
2.47192	
2.4826	
2.48718	
2.4826	
2.48871	
2.49329	
2.48871	
2.48718	
2.48413	
2.47803	
2.47803	
2.4704	
2.4826	
2.48871	
2.49329	
2.48718	
2.49023	
2.50244	
2.50854	
2.50092	
2.49329	
2.49176	
2.47345	
2.46277	
2.45056	
2.43683	
2.43225	
2.42767	
2.42615	
2.42615	
2.42157	
2.42462	
2.43225	
2.42767	
2.44141	
2.45056	
2.46124	
2.46429	
2.4704	
2.47345	
2.47498	
2.4704	
2.46582	
2.46124	
2.46582	
2.45819	
2.44751	
2.44293	
2.45056	
2.43835	
2.43225	
2.4292	
2.4231	
2.42615	
2.43378	
2.43683	
2.4353	
2.44141	
2.44293	
2.44446	
2.4353	
2.43835	
2.43683	
2.43835	
2.43988	
2.44293	
2.45361	
2.45056	
2.45667	
2.45972	
2.45361	
2.45361	
2.46582	
2.45972	
2.45361	
2.45209	
2.46124	
2.47498	
2.48413	
2.47955	
2.47192	
2.47955	
2.47345	
2.46582	
2.45209	
2.45819	
2.45819	
2.45819	
2.46124	
2.44751	
2.43835	
2.42157	
2.41699	
2.42157	
2.40784	
2.41547	
2.42004	
2.4231	
2.41852	
2.41089	
2.40936	
2.41547	
2.41852	
2.41547	
2.41089	
2.42615	
2.44446	
2.44293	
2.45514	
2.47955	
2.48108	
2.48566	
2.47955	
2.46582	
2.44904	
2.43835	
2.43378	
2.42767	
2.41241	
2.40021	
2.39563	
2.40479	
2.39716	
2.39563	
2.39105	
2.3941	
2.38953	
2.39563	
2.3941	
2.41241	
2.44446	
2.46429	
2.46429	
2.46277	
2.46887	
2.46735	
2.45819	
2.45514	
2.43683	
2.42767	
2.41852	
2.40479	
2.39563	
2.39258	
2.39868	
2.40479	
2.40326	
2.40326	
2.40173	
2.40631	
2.40173	
2.39868	
2.40936	
2.41699	
2.41699	
2.41547	
2.40784	
2.40631	
2.40173	
2.38495	
2.37427	
2.37579	
2.38647	
2.39105	
2.388	
2.37732	
2.37885	
2.37732	
2.37885	
2.38495	
2.388	
2.40173	
2.42004	
2.43835	
2.43988	
2.44141	
2.44446	
2.45056	
2.44141	
2.43835	
2.43378	
2.4353	
2.4353	
2.43378	
2.41241	
2.40173	
2.39258	
2.39563	
2.40173	
2.41547	
2.42004	
2.40479	
2.40021	
2.39563	
2.39563	
2.38953	
2.38953	
2.38495	
2.388	
2.38953	
2.388	
2.37427	
2.37122	
2.37427	
2.388	
2.38495	
2.37427	
2.37427	
2.37427	
2.37122	
2.37122	
2.36816	
2.36664	
2.36969	
2.37732	
2.37885	
2.37427	
2.37885	
2.38647	
2.37885	
2.39258	
2.39563	
2.41089	
2.41852	
2.42157	
2.41699	
2.40784	
2.40479	
2.40479	
2.39716	
2.39716	
2.40479	
2.40936	
2.41089	
2.40784	
2.39258	
2.39105	
2.3941	
2.38495	
2.38495	
2.39105	
2.388	
2.37885	
2.36816	
2.36969	
2.36511	
2.35596	
2.35596	
2.36969	
2.38953	
2.40631	
2.41241	
2.41699	
2.42767	
2.43225	
2.43378	
2.43835	
2.44446	
2.43835	
2.43225	
2.4292	
2.42004	
2.41089	
2.41089	
2.41089	
2.40326	
2.388	
2.37122	
2.36511	
2.36511	
2.36969	
2.36359	
2.36511	
2.36664	
2.37274	
2.36816	
2.36206	
2.36969	
2.38037	
2.40021	
2.41241	
2.41852	
2.4231	
2.43073	
2.4353	
2.44446	
2.45209	
2.46429	
2.47345	
2.47192	
2.47955	
2.46124	
2.44141	
2.43835	
2.4353	
2.43988	
2.43225	
2.42157	
2.40784	
2.40173	
2.39868	
2.39105	
2.38953	
2.38647	
2.37885	
2.38495	
2.39563	
2.39563	
2.40173	
2.40479	
2.40479	
2.40631	
2.40479	
2.41699	
2.43073	
2.44446	
2.44293	
2.43683	
2.4292	
2.42462	
2.42767	
2.42462	
2.4292	
2.44293	
2.43683	
2.43988	
2.4292	
2.42157	
2.40784	
2.39868	
2.3941	
2.388	
2.38647	
2.39105	
2.37732	
2.37732	
2.37579	
2.37579	
2.37427	
2.38037	
2.3819	
2.388	
2.39105	
2.39258	
2.40326	
2.40784	
2.41852	
2.42462	
2.43378	
2.44293	
2.44904	
2.46582	
2.46124	
2.46124	
2.46582	
2.48718	
2.48871	
2.47803	
2.46429	
2.45819	
2.45361	
2.45056	
2.45056	
2.44446	
2.44293	
2.45514	
2.45514	
2.43683	
2.42615	
2.4292	
2.42767	
2.44751	
2.43683	
2.43988	
2.43073	
2.42004	
2.39716	
2.39105	
2.37274	
2.37274	
2.37274	
2.36969	
2.36359	
2.37122	
2.3819	
2.38647	
2.3819	
2.37579	
2.38037	
2.37732	
2.39105	
2.40631	
2.43073	
2.43835	
2.45209	
2.46277	
2.46429	
2.46277	
2.46277	
2.46429	
2.45819	
2.43835	
2.43683	
2.43073	
2.43225	
2.4231	
2.42004	
2.42004	
2.41699	
2.42004	
2.42004	
2.40936	
2.41547	
2.40479	
2.41089	
2.41547	
2.41547	
2.42462	
2.4292	
2.46735	
2.48871	
2.49023	
2.50244	
2.52228	
2.51923	
2.50397	
2.49176	
2.47345	
2.45667	
2.4353	
2.42157	
2.39258	
2.36816	
2.35748	
2.34985	
2.34528	
2.35748	
2.37885	
2.38647	
2.39868	
2.41547	
2.41852	
2.43073	
2.45514	
2.46887	
2.49023	
2.48871	
2.48108	
2.48566	
2.47192	
2.46124	
2.45209	
2.44751	
2.43683	
2.42157	
2.40326	
2.3819	
2.36053	
2.36359	
2.36664	
2.37274	
2.3819	
2.3819	
2.36969	
2.36511	
2.36664	
2.36511	
2.36969	
2.36969	
2.37732	
2.39105	
2.39258	
2.39563	
2.39563	
2.39716	
2.3941	
2.40326	
2.40784	
2.41089	
2.41699	
2.42004	
2.43073	
2.43073	
2.42767	
2.43073	
2.44751	
2.45819	
2.46124	
2.45667	
2.45056	
2.44751	
2.43988	
2.4292	
2.43378	
2.43073	
2.4231	
2.40326	
2.40173	
2.40021	
2.40479	
2.40479	
2.40784	
2.41547	
2.42157	
2.4292	
2.43835	
2.43378	
2.43378	
2.4231	
2.41241	
2.40173	
2.38953	
2.37579	
2.38495	
2.37885	
2.37122	
2.36511	
2.36206	
2.36511	
2.36816	
2.37274	
2.37732	
2.38495	
2.39258	
2.40021	
2.40479	
2.41699	
2.4292	
2.42767	
2.44751	
2.46887	
2.4826	
2.48566	
2.4704	
2.45667	
2.44141	
2.4292	
2.42004	
2.41089	
2.39716	
2.39105	
2.3819	
2.36816	
2.36053	
2.34985	
2.35443	
2.36359	
2.36664	
2.37885	
2.39716	
2.42157	
2.42767	
2.41852	
2.42157	
2.42004	
2.41699	
2.42157	
2.41699	
2.40631	
2.39563	
2.38953	
2.37579	
2.37122	
2.36816	
2.388	
2.40021	
2.40784	
2.41852	
2.42767	
2.4353	
2.43225	
2.4292	
2.42767	
2.4231	
2.42615	
2.43073	
2.43225	
2.4353	
2.41241	
2.40631	
2.42157	
2.42157	
2.41547	
2.40326	
2.39716	
2.40021	
2.39716	
2.39105	
2.40326	
2.40631	
2.42157	
2.42462	
2.41699	
2.41547	
2.40326	
2.40173	
2.40479	
2.39716	
2.39716	
2.39716	
2.39258	
2.39105	
2.37885	
2.38037	
2.38647	
2.38037	
2.38953	
2.38647	
2.38953	
2.39258	
2.3941	
2.40021	
2.42767	
2.43378	
2.43835	
2.43073	
2.43378	
2.43683	
2.43378	
2.42462	
2.42462	
2.42157	
2.40631	
2.39563	
2.388	
2.39868	
2.41241	
2.41852	
2.44446	
2.47803	
2.48718	
2.47955	
2.47803	
2.47345	
2.46582	
2.46124	
2.43683	
2.40631	
2.38647	
2.35901	
2.34528	
2.33307	
2.32697	
2.34528	
2.3468	
2.34833	
2.35138	
2.35596	
2.36053	
2.36511	
2.37427	
2.37732	
2.37885	
2.3819	
2.37732	
2.38495	
2.388	
2.38953	
2.38953	
2.3941	
2.39716	
2.39258	
2.40021	
2.39716	
2.40021	
2.40021	
2.3941	
2.39258	
2.38647	
2.3819	
2.38037	
2.3941	
2.40631	
2.41699	
2.45667	
2.46429	
2.47498	
2.47498	
2.47345	
2.4704	
2.45819	
2.44904	
2.43225	
2.41699	
2.40021	
2.38495	
2.36511	
2.34985	
2.33765	
2.33307	
2.33612	
2.3407	
2.34375	
2.33917	
2.34222	
2.3468	
2.3468	
2.34985	
2.35443	
2.35901	
2.35748	
2.36664	
2.36206	
2.35443	
2.35596	
2.36206	
2.37427	
2.40173	
2.41241	
2.42004	
2.41852	
2.41699	
2.40631	
2.39868	
2.39716	
2.39258	
2.39258	
2.39563	
2.38037	
2.37122	
2.36053	
2.35138	
2.35138	
2.35443	
2.35443	
2.35748	
2.35901	
2.36053	
2.35596	
2.35748	
2.36053	
2.36511	
2.36664	
2.37274	
2.37122	
2.37579	
2.37274	
2.3819	
2.38647	
2.38495	
2.40326	
2.41699	
2.41241	
2.40479	
2.40479	
2.40326	
2.40326	
2.39716	
2.39258	
2.38953	
2.38953	
2.3819	
2.37427	
2.35748	
2.33917	
2.33459	
2.33307	
2.33917	
2.3468	
2.34528	
2.3407	
2.33917	
2.3468	
2.36053	
2.38495	
2.3941	
2.3941	
2.39868	
2.40021	
2.39105	
2.38647	
2.38495	
2.38037	
2.37885	
2.37122	
2.36664	
2.36206	
2.34985	
2.3468	
2.34833	
2.35596	
2.38495	
2.39716	
2.40479	
2.40936	
2.40173	
2.39105	
2.388	
2.38953	
2.37579	
2.37579	
2.3819	
2.37122	
2.36206	
2.34985	
2.34375	
2.34833	
2.36359	
2.36816	
2.37122	
2.36969	
2.36969	
2.36664	
2.36816	
2.36511	
2.36664	
2.36816	
2.36511	
2.36359	
2.36053	
2.35748	
2.3468	
2.34985	
2.35596	
2.36816	
2.37122	
2.36969	
2.3819	
2.39716	
2.40631	
2.41241	
2.42157	
2.4292	
2.43835	
2.43073	
2.42004	
2.41241	
2.39868	
2.3819	
2.37427	
2.36664	
2.36206	
2.34528	
2.34985	
2.34833	
2.33459	
2.33307	
2.3468	
2.36053	
2.36206	
2.36511	
2.36053	
2.34833	
2.34833	
2.35596	
2.34222	
2.33765	
2.34985	
2.34833	
2.35596	
2.36969	
2.36969	
2.36359	
2.37122	
2.38495	
2.39563	
2.40021	
2.40631	
2.40936	
2.40784	
2.39868	
2.38647	
2.37885	
2.37274	
2.36664	
2.36969	
2.36664	
2.36969	
2.36969	
2.36511	
2.36664	
2.36664	
2.36053	
2.36206	
2.36664	
2.36511	
2.36969	
2.36664	
2.36664	
2.36511	
2.36359	
2.35596	
2.35901	
2.36664	
2.36816	
2.36664	
2.36664	
2.36206	
2.36053	
2.36664	
2.37427	
2.37427	
2.37274	
2.37122	
2.37579	
2.37732	
2.36664	
2.37427	
2.37122	
2.37122	
2.37122	
2.36969	
2.36816	
2.37122	
2.36816	
2.37122	
2.37732	
2.37579	
2.37732	
2.38495	
2.38647	
2.38647	
2.38953	
2.38647	
2.388	
2.388	
2.388	
2.38495	
2.37274	
2.37122	
2.36664	
2.36511	
2.37579	
2.38495	
2.37274	
2.36206	
2.37732	
2.37732	
2.37274	
2.36816	
2.36511	
2.37427	
2.38647	
2.39105	
2.39716	
2.39868	
2.39258	
2.40479	
2.40021	
2.39563	
2.39716	
2.3941	
2.39105	
2.38495	
2.38037	
2.37732	
2.37427	
2.38037	
2.3819	
2.38037	
2.38495	
2.37732	
2.36816	
2.37274	
2.36969	
2.37122	
2.37885	
2.37427	
2.37274	
2.37122	
2.37579	
2.37732	
2.37427	
2.37579	
2.38495	
2.38037	
2.37885	
2.38037	
2.37579	
2.37885	
2.37732	
2.37274	
2.3819	
2.38647	
2.38647	
2.38037	
2.39563	
2.39716	
2.39105	
2.39258	
2.39716	
2.40173	
2.40631	
2.40936	
2.42615	
2.45361	
2.46429	
2.44904	
2.44293	
2.4353	
2.42767	
2.41852	
2.40631	
2.388	
2.37274	
2.36359	
2.35596	
2.35443	
2.35443	
2.3468	
2.34375	
2.35138	
2.36206	
2.35901	
2.34833	
2.34528	
2.3468	
2.3468	
2.35443	
2.36206	
2.36206	
2.35901	
2.36053	
2.35748	
2.36053	
2.36359	
2.36664	
2.37274	
2.37427	
2.37274	
2.37122	
2.36969	
2.36359	
2.36664	
2.36664	
2.36206	
2.36359	
2.36359	
2.36206	
2.36664	
2.37427	
2.37427	
2.37885	
2.39258	
2.38495	
2.37885	
2.388	
2.388	
2.38953	
2.388	
2.388	
2.3941	
2.3941	
2.39258	
2.39563	
2.39716	
2.39105	
2.38953	
2.37885	
2.37732	
2.36969	
2.36664	
2.36053	
2.36053	
2.36053	
2.35596	
2.36359	
2.36359	
2.36359	
2.37427	
2.37885	
2.37732	
2.38953	
2.38953	
2.40326	
2.41089	
2.42004	
2.42157	
2.4231	
2.41089	
2.40936	
2.40631	
2.39258	
2.38037	
2.37885	
2.37732	
2.38647	
2.38953	
2.38953	
2.37885	
2.37274	
2.35748	
2.35443	
2.3468	
2.3468	
2.35138	
2.34985	
2.3468	
2.3407	
2.34222	
2.35443	
2.35748	
2.36206	
2.36969	
2.36969	
2.36969	
2.37274	
2.37885	
2.36969	
2.37122	
2.37885	
2.37732	
2.37427	
2.37274	
2.37579	
2.37732	
2.38647	
2.388	
2.38495	
2.37427	
2.36511	
2.36053	
2.36511	
2.37122	
2.36359	
2.35748	
2.36969	
2.36206	
2.35596	
2.36053	
2.34833	
2.35596	
2.35748	
2.36359	
2.37122	
2.37427	
2.37274	
2.37427	
2.36969	
2.37274	
2.37274	
2.37274	
2.37579	
2.37885	
2.388	
2.38495	
2.3941	
2.39563	
2.38953	
2.38953	
2.38647	
2.37885	
2.37122	
2.36969	
2.36816	
2.36969	
2.36359	
2.36511	
2.36206	
2.36206	
2.37122	
2.37732	
2.37732	
2.40021	
2.42157	
2.41852	
2.42157	
2.41089	
2.39716	
2.39563	
2.39868	
2.39868	
2.3819	
2.37579	
2.36511	
2.35596	
2.35443	
2.34528	
2.34375	
2.34375	
2.33917	
2.34375	
2.33917	
2.34528	
2.3468	
2.34528	
2.3468	
2.35443	
2.34985	
2.35138	
2.34528	
2.35596	
2.36206	
2.36816	
2.36359	
2.36053	
2.36816	
2.37274	
2.37122	
2.37732	
2.37122	
2.37885	
2.37122	
2.36816	
2.36969	
2.37732	
2.37885	
2.38037	
2.3819	
2.3819	
2.38495	
2.37732	
2.37122	
2.36053	
2.34833	
2.35748	
2.34833	
2.35596	
2.34985	
2.34833	
2.35138	
2.34833	
2.34985	
2.35138	
2.35901	
2.36206	
2.36206	
2.36359	
2.35748	
2.35138	
2.34985	
2.36816	
2.37885	
2.388	
2.39105	
2.38953	
2.38953	
2.39563	
2.3941	
2.388	
2.38647	
2.38495	
2.37579	
2.36816	
2.36359	
2.36053	
2.35596	
2.3468	
2.33917	
2.34222	
2.33917	
2.3407	
2.34222	
2.34222	
2.33917	
2.34375	
2.34375	
2.34985	
2.35443	
2.35443	
2.35901	
2.35748	
2.34985	
2.34985	
2.35138	
2.34222	
2.34528	
2.36511	
2.36053	
2.36511	
2.38495	
2.39716	
2.40173	
2.39868	
2.39716	
2.388	
2.37885	
2.37732	
2.37274	
2.36969	
2.35443	
2.35596	
2.34833	
2.33917	
2.34528	
2.33765	
2.32544	
2.33154	
2.33459	
2.33154	
2.32239	
2.33002	
2.33154	
2.33002	
2.33002	
2.32544	
2.32849	
2.32544	
2.33002	
2.33459	
2.32849	
2.33002	
2.33459	
2.33459	
2.33765	
2.3407	
2.33612	
2.33917	
2.33917	
2.33765	
2.33917	
2.33459	
2.33765	
2.33307	
2.33002	
2.3407	
2.3468	
2.35596	
2.35443	
2.3468	
2.35138	
2.34833	
2.34833	
2.35748	
2.35596	
2.35596	
2.36359	
2.35748	
2.34985	
2.3407	
2.33307	
2.33154	
2.32697	
2.32544	
2.32239	
2.32391	
2.31628	
2.31934	
2.32544	
2.33459	
2.3468	
2.37732	
2.38953	
2.39258	
2.39258	
2.39868	
2.3941	
2.39563	
2.38495	
2.37579	
2.36816	
2.35138	
2.35596	
2.35443	
2.3468	
2.33459	
2.33307	
2.33002	
2.3407	
2.33917	
2.3407	
2.36359	
2.36816	
2.36664	
2.36969	
2.36206	
2.35443	
2.3407	
2.32697	
2.31018	
2.2995	
2.28271	
2.28882	
2.30713	
2.31171	
2.3056	
2.30865	
2.33002	
2.37122	
2.39716	
2.40479	
2.40479	
2.40936	
2.41089	
2.40631	
2.38495	
2.37579	
2.36816	
2.34833	
2.33459	
2.31476	
2.31628	
2.30865	
2.28882	
2.30255	
2.2995	
2.28729	
2.2995	
2.3056	
2.3056	
2.29645	
2.28577	
2.28729	
2.28424	
2.28882	
2.2934	
2.2934	
2.33307	
2.36053	
2.37885	
2.38647	
2.38953	
2.39258	
2.39258	
2.38037	
2.36511	
2.35443	
2.33612	
2.32391	
2.32391	
2.30713	
2.28577	
2.28119	
2.30713	
2.34985	
2.39258	
2.41547	
2.47955	
2.50854	
2.52686	
2.52228	
2.49481	
2.45514	
2.43073	
2.39868	
2.36053	
2.32391	
2.27966	
2.23846	
2.211	
2.22168	
2.21252	
2.20947	
2.22015	
2.23389	
2.24915	
2.26898	
2.26746	
2.26898	
2.30255	
2.31018	
2.30255	
2.29645	
2.28119	
2.26593	
2.25372	
2.23236	
2.23083	
2.23083	
2.22778	
2.22473	
2.23389	
2.23389	
2.22015	
2.21863	
2.22778	
2.23694	
2.24152	
2.24609	
2.24762	
2.2583	
2.26135	
2.25525	
2.25677	
2.27051	
2.27051	
2.27509	
2.28271	
2.27509	
2.27356	
2.27051	
2.26593	
2.27356	
2.28119	
2.27814	
2.27814	
2.27661	
2.27356	
2.27509	
2.27356	
2.27966	
2.28119	
2.28271	
2.28119	
2.28271	
2.27814	
2.27814	
2.27814	
2.27966	
2.28424	
2.28119	
2.27814	
2.28424	
2.28271	
2.28882	
2.29187	
2.28577	
2.29797	
2.29797	
2.2995	
2.30255	
2.30408	
2.29645	
2.28882	
2.29645	
2.29492	
2.28882	
2.28882	
2.28271	
2.27814	
2.27356	
2.27203	
2.26898	
2.26288	
2.27051	
2.27356	
2.28119	
2.28882	
2.2934	
2.2934	
2.28729	
2.2934	
2.2934	
2.29492	
2.30103	
2.31171	
2.31018	
2.30408	
2.2934	
2.27509	
2.27814	
2.28577	
2.2934	
2.28119	
2.27814	
2.26746	
2.2644	
2.27051	
2.28119	
2.2934	
2.29492	
2.29797	
2.30408	
2.30408	
2.30255	
2.3056	
2.30408	
2.31171	
2.3056	
2.29797	
2.2934	
2.28577	
2.27509	
2.27051	
2.26746	
2.26898	
2.26593	
2.26288	
2.24609	
2.24762	
2.25372	
2.25525	
2.25677	
2.27203	
2.28882	
2.2995	
2.30255	
2.30255	
2.2995	
2.29645	
2.2934	
2.29187	
2.28271	
2.27051	
2.2644	
2.27661	
2.28271	
2.26746	
2.27966	
2.28882	
2.29492	
2.2995	
2.29187	
2.29187	
2.29645	
2.28882	
2.28424	
2.27356	
2.26898	
2.26135	
2.25067	
2.24457	
2.24152	
2.23999	
2.24152	
2.24915	
2.25067	
2.25372	
2.24762	
2.25372	
2.25067	
2.26135	
2.27051	
2.27051	
2.27509	
2.27966	
2.28271	
2.29492	
2.2995	
2.29492	
2.29797	
2.30408	
2.31934	
2.32849	
2.33307	
2.34375	
2.34833	
2.3468	
2.33307	
2.31323	
2.2995	
2.28729	
2.28271	
2.28424	
2.26135	
2.25525	
2.23694	
2.23083	
2.22473	
2.21405	
2.21405	
2.21863	
2.23083	
2.23846	
2.23846	
2.24152	
2.24457	
2.2583	
2.26746	
2.27661	
2.28119	
2.27509	
2.27203	
2.27966	
2.28577	
2.29187	
2.28271	
2.28424	
2.28424	
2.28424	
2.27966	
2.26898	
2.27051	
2.27509	
2.27051	
2.2583	
2.26288	
2.27356	
2.2644	
2.26135	
2.26135	
2.26135	
2.2583	
2.26135	
2.26593	
2.2644	
2.27356	
2.28729	
2.29187	
2.29645	
2.30408	
2.31323	
2.31781	
2.31934	
2.31781	
2.31781	
2.32697	
2.34222	
2.3468	
2.34222	
2.34375	
2.33917	
2.32849	
2.31018	
2.2995	
2.28271	
2.27966	
2.28119	
2.27356	
2.25372	
2.24762	
2.24152	
2.24457	
2.2522	
2.2644	
2.26593	
2.2644	
2.26288	
2.26593	
2.27356	
2.27509	
2.27966	
2.28271	
2.28271	
2.29187	
2.31781	
2.32239	
2.32391	
2.33002	
2.33459	
2.33307	
2.32391	
2.30713	
2.28424	
2.27509	
2.26288	
2.23389	
2.22473	
2.22321	
2.21863	
2.21405	
2.21558	
2.22168	
2.22626	
2.22626	
2.24152	
2.2583	
2.27814	
2.28271	
2.28271	
2.28424	
2.28424	
2.27814	
2.27509	
2.27661	
2.26898	
2.27203	
2.26593	
2.26898	
2.28271	
2.29645	
2.3056	
2.2995	
2.30865	
2.30255	
2.30103	
2.29797	
2.28577	
2.27661	
2.27509	
2.28882	
2.30408	
2.30408	
2.29797	
2.2934	
2.30255	
2.31628	
2.32544	
2.31781	
2.30103	
2.28424	
2.27661	
2.25372	
2.24609	
2.22626	
2.23236	
2.22015	
2.23083	
2.211	
2.20795	
2.2171	
2.22473	
2.24152	
2.24304	
2.24304	
2.23999	
2.24152	
2.24152	
2.23999	
2.22626	
2.22015	
2.20337	
2.18506	
2.18658	
2.20184	
2.20184	
2.20337	
2.22626	
2.25677	
2.30713	
2.33612	
2.35901	
2.3407	
2.33459	
2.32544	
2.31628	
2.30408	
2.31018	
2.30255	
2.29492	
2.28271	
2.26898	
2.25677	
2.25067	
2.24609	
2.2583	
2.27814	
2.28119	
2.28424	
2.28119	
2.28271	
2.28119	
2.28729	
2.28424	
2.28424	
2.27966	
2.26135	
2.23694	
2.21405	
2.21252	
2.211	
2.20947	
2.20947	
2.20337	
2.20642	
2.22015	
2.23541	
2.2644	
2.33612	
2.37579	
2.40326	
2.40784	
2.39563	
2.38495	
2.36664	
2.3407	
2.32239	
2.30103	
2.26898	
2.24457	
2.21252	
2.19879	
2.17743	
2.15607	
2.13776	
2.12097	
2.11639	
2.11334	
2.12708	
2.14233	
2.17743	
2.22473	
2.28271	
2.33154	
2.39258	
2.40936	
2.40021	
2.39563	
2.37427	
2.35901	
2.33765	
2.31171	
2.28882	
2.2644	
2.25525	
2.23999	
2.20642	
2.19269	
2.19421	
2.20642	
2.20642	
2.21558	
2.21558	
2.21405	
2.22168	
2.23083	
2.23389	
2.23999	
2.24457	
2.23999	
2.24457	
2.25677	
2.26288	
2.27814	
2.28424	
2.30103	
2.3407	
2.35901	
2.36969	
2.36664	
2.35901	
2.34985	
2.33612	
2.31476	
2.28271	
2.24762	
2.21863	
2.20032	
2.18506	
2.17438	
2.18201	
2.17438	
2.17743	
2.17285	
2.16217	
2.15454	
2.15149	
2.15607	
2.15759	
2.17133	
2.19116	
2.22321	
2.25372	
2.28119	
2.27509	
2.27509	
2.27661	
2.26288	
2.24304	
2.23541	
2.22778	
2.23236	
2.2583	
2.24762	
2.23541	
2.21863	
2.2171	
2.20337	
2.19879	
2.18353	
2.18964	
2.19269	
2.20184	
2.20795	
2.21252	
2.23236	
2.24915	
2.24457	
2.23236	
2.23541	
2.23541	
2.24609	
2.26593	
2.3056	
2.32239	
2.31476	
2.31018	
2.30713	
2.29187	
2.27661	
2.26135	
2.24152	
2.22015	
2.20795	
2.19879	
2.18201	
2.17438	
2.16064	
2.15607	
2.15607	
2.15607	
2.17438	
2.20337	
2.20184	
2.20337	
2.20947	
2.24152	
2.26746	
2.2583	
2.26135	
2.27203	
2.30408	
2.31018	
2.31323	
2.31476	
2.31628	
2.31476	
2.29645	
2.27356	
2.24304	
2.22168	
2.19421	
2.17743	
2.1698	
2.13776	
2.13776	
2.13928	
2.14233	
2.14233	
2.14844	
2.15759	
2.1698	
2.18048	
2.21252	
2.23541	
2.24609	
2.24762	
2.25372	
2.26288	
2.26288	
2.26593	
2.27051	
2.25525	
2.24915	
2.23999	
2.2171	
2.20642	
2.19879	
2.19421	
2.18964	
2.18048	
2.16827	
2.14386	
2.14081	
2.15302	
2.14996	
2.15912	
2.1698	
2.1637	
2.16064	
2.16064	
2.16522	
2.1698	
2.1698	
2.17285	
2.18048	
2.19116	
2.19879	
2.19421	
2.19116	
2.19574	
2.21558	
2.21863	
2.23236	
2.23083	
2.21863	
2.22015	
2.21558	
2.211	
2.20642	
2.2049	
2.19116	
2.18506	
2.17896	
2.17133	
2.15759	
2.15759	
2.16064	
2.16064	
2.16217	
2.16522	
2.18506	
2.19574	
2.20337	
2.20337	
2.20337	
2.2049	
2.19116	
2.18964	
2.17896	
2.1759	
2.17133	
2.17743	
2.18353	
2.16827	
2.16522	
2.1637	
2.16827	
2.17285	
2.17285	
2.1759	
2.18353	
2.21558	
2.24915	
2.2522	
2.26135	
2.2583	
2.26746	
2.26746	
2.2583	
2.26593	
2.25525	
2.23694	
2.22626	
2.21252	
2.17438	
2.14539	
2.15302	
2.15454	
2.15302	
2.13776	
2.1286	
2.10724	
2.09045	
2.06757	
2.05688	
2.05383	
2.06451	
2.0813	
2.10876	
2.11792	
2.15759	
2.20184	
2.22168	
2.23083	
2.26288	
2.28119	
2.27661	
2.27356	
2.27509	
2.26288	
2.24762	
2.22473	
2.21405	
2.20184	
2.1759	
2.15454	
2.14233	
2.11945	
2.11029	
2.11029	
2.11334	
2.13165	
2.15149	
2.17438	
2.18201	
2.21405	
2.23999	
2.25372	
2.2583	
2.26135	
2.25677	
2.23846	
2.22168	
2.20795	
2.18201	
2.1698	
2.14233	
2.1225	
2.11182	
2.10571	
2.11487	
2.11945	
2.1286	
2.11945	
2.11182	
2.11334	
2.11334	
2.11945	
2.12708	
2.1347	
2.13776	
2.14539	
2.14691	
2.14996	
2.14996	
2.15607	
2.15149	
2.15149	
2.15454	
2.15302	
2.14844	
2.14233	
2.14081	
2.13776	
2.14081	
2.14996	
2.14844	
2.15149	
2.15454	
2.15302	
2.15759	
2.1637	
2.16827	
2.16827	
2.16827	
2.17285	
2.17285	
2.17285	
2.16827	
2.17133	
2.16064	
2.14691	
2.1286	
2.11792	
2.09656	
2.07977	
2.0752	
2.08893	
2.12402	
2.14844	
2.15912	
2.1637	
2.17896	
2.20642	
2.20795	
2.20184	
2.19116	
2.18811	
2.18353	
2.17743	
2.1759	
2.17285	
2.16522	
2.17438	
2.17438	
2.17133	
2.1698	
2.16522	
2.15912	
2.15149	
2.13776	
2.14691	
2.14996	
2.15454	
2.1637	
2.16217	
2.20642	
2.24609	
2.30103	
2.33307	
2.3407	
2.33612	
2.32391	
2.30255	
2.27661	
2.2522	
2.22778	
2.20947	
2.18506	
2.16827	
2.13776	
2.11334	
2.10114	
2.09045	
2.0813	
2.07977	
2.08282	
2.08435	
2.09808	
2.10876	
2.10571	
2.11639	
2.1225	
2.11945	
2.12555	
2.1286	
2.15302	
2.1637	
2.17285	
2.16827	
2.16522	
2.16217	
2.15454	
2.14996	
2.15759	
2.1637	
2.1637	
2.15454	
2.15149	
2.14539	
2.13165	
2.13013	
2.14386	
2.14844	
2.14996	
2.15149	
2.14844	
2.14539	
2.15149	
2.15454	
2.15912	
2.1637	
2.16522	
2.16522	
2.17133	
2.1698	
2.1698	
2.16827	
2.16827	
2.18201	
2.19879	
2.19269	
2.18964	
2.18201	
2.1759	
2.17285	
2.17285	
2.16217	
2.15912	
2.15607	
2.15454	
2.15912	
2.15607	
2.15149	
2.15149	
2.14844	
2.14996	
2.15302	
2.15607	
2.15607	
2.15912	
2.15912	
2.16827	
2.17133	
2.19421	
2.20642	
2.20184	
2.19879	
2.20795	
2.21252	
2.21558	
2.21252	
2.2049	
2.20795	
2.19574	
2.18353	
2.17133	
2.15759	
2.15149	
2.15302	
2.15454	
2.15302	
2.14996	
2.14233	
2.15149	
2.15149	
2.15302	
2.15759	
2.15759	
2.16522	
2.16827	
2.19269	
2.21558	
2.23541	
2.25067	
2.25372	
2.26135	
2.27356	
2.27661	
2.26288	
2.24152	
2.22015	
2.19879	
2.18048	
2.16217	
2.14233	
2.1286	
2.1225	
2.12402	
2.11487	
2.11945	
2.12708	
2.13165	
2.13318	
2.15149	
2.16522	
2.16522	
2.17438	
2.17896	
2.17896	
2.17438	
2.1759	
2.17285	
2.16522	
2.1637	
2.16064	
2.16217	
2.15302	
2.15454	
2.1759	
2.18658	
2.20337	
2.20184	
2.18964	
2.18811	
2.20032	
2.21252	
2.21558	
2.211	
2.22168	
2.2171	
2.20337	
2.17743	
2.15912	
2.15912	
2.15302	
2.14996	
2.14539	
2.14081	
2.13928	
2.13318	
2.14233	
2.13928	
2.13318	
2.13318	
2.14233	
2.15454	
2.15759	
2.1637	
2.16827	
2.1698	
2.17285	
2.17438	
2.18201	
2.19879	
2.2049	
2.2049	
2.2049	
2.2049	
2.20184	
2.19574	
2.18658	
2.18353	
2.18201	
2.17133	
2.16827	
2.16522	
2.15302	
2.16217	
2.16217	
2.16827	
2.17438	
2.17285	
2.17896	
2.18201	
2.18353	
2.18048	
2.18353	
2.18201	
2.18506	
2.20642	
2.23083	
2.22321	
2.22473	
2.21558	
2.21252	
2.20642	
2.20032	
2.18658	
2.1759	
2.17133	
2.16827	
2.1698	
2.15607	
2.14691	
2.15302	
2.15912	
2.15607	
2.15759	
2.15454	
2.15454	
2.19879	
2.21863	
2.23236	
2.24457	
2.23236	
2.22626	
2.21405	
2.2049	
2.18658	
2.17133	
2.15912	
2.15912	
2.14539	
2.1347	
2.12708	
2.13776	
2.13165	
2.12097	
2.1286	
2.13318	
2.14539	
2.14539	
2.14386	
2.13928	
2.14386	
2.14539	
2.14691	
2.14691	
2.14844	
2.15302	
2.15454	
2.15759	
2.15454	
2.15912	
2.1637	
2.17133	
2.18201	
2.17896	
2.17896	
2.1759	
2.17743	
2.17896	
2.1759	
2.17896	
2.1759	
2.1759	
2.1759	
2.17438	
2.1759	
2.16827	
2.1698	
2.17438	
2.16522	
2.17133	
2.17133	
2.16522	
2.16827	
2.1759	
2.18048	
2.17743	
2.18048	
2.18506	
2.19269	
2.19269	
2.19269	
2.19116	
2.19421	
2.18964	
2.20184	
2.2049	
2.20642	
2.20032	
2.19574	
2.18811	
2.18964	
2.18048	
2.16827	
2.15759	
2.14691	
2.14081	
2.13776	
2.13013	
2.1286	
2.1286	
2.12097	
2.12555	
2.13165	
2.14386	
2.14386	
2.14386	
2.14233	
2.14233	
2.15759	
2.1637	
2.16522	
2.16827	
2.16522	
2.17285	
2.1698	
2.15912	
2.16217	
2.15759	
2.15607	
2.15759	
2.15759	
2.1637	
2.1759	
2.18201	
2.19879	
2.20184	
2.19116	
2.19269	
2.19116	
2.17896	
2.1759	
2.17133	
2.15759	
2.15149	
2.13318	
2.11182	
2.09961	
2.10571	
2.10571	
2.10266	
2.10724	
2.1347	
2.15912	
2.19421	
2.24152	
2.23389	
2.2049	
2.1759	
2.16522	
2.16064	
2.15149	
2.14844	
2.14386	
2.15454	
2.15454	
2.14539	
2.13165	
2.13165	
2.14081	
2.14386	
2.15759	
2.17133	
2.18048	
2.16064	
2.15454	
2.14691	
2.14386	
2.13776	
2.14233	
2.15607	
2.16827	
2.1637	
2.17133	
2.17133	
2.17133	
2.19269	
2.19116	
2.2171	
2.22473	
2.23999	
2.24457	
2.23999	
2.22778	
2.25372	
2.27966	
2.28424	
2.27051	
2.24915	
2.21863	
2.19574	
2.17743	
2.15912	
2.13318	
2.12097	
2.09961	
2.08282	
2.07672	
2.07825	
2.09961	
2.11182	
2.11029	
2.1225	
2.12097	
2.12708	
2.1286	
2.13165	
2.1637	
2.17743	
2.18811	
2.19421	
2.19421	
2.19116	
2.18658	
2.18048	
2.17896	
2.18353	
2.18964	
2.19116	
2.18964	
2.1759	
2.17133	
2.1759	
2.17896	
2.17438	
2.16827	
2.15912	
2.14996	
2.14539	
2.14081	
2.13776	
2.1225	
2.1225	
2.1286	
2.1286	
2.1347	
2.1347	
2.13165	
2.14081	
2.14539	
2.14844	
2.14996	
2.14996	
2.15759	
2.16217	
2.15912	
2.16217	
2.15607	
2.15302	
2.14844	
2.14233	
2.14233	
2.14081	
2.14081	
2.14233	
2.14233	
2.14844	
2.14996	
2.1698	
2.18506	
2.18964	
2.18811	
2.19879	
2.19879	
2.20337	
2.22473	
2.22626	
2.21558	
2.20642	
2.19421	
2.18353	
2.1698	
2.15912	
2.14233	
2.13776	
2.14081	
2.13165	
2.1347	
2.14844	
2.17285	
2.18353	
2.18506	
2.19116	
2.18506	
2.17133	
2.1698	
2.17133	
2.16827	
2.16064	
2.13318	
2.12097	
2.12402	
2.11029	
2.10114	
2.10876	
2.11945	
2.1286	
2.1225	
2.13013	
2.13776	
2.1347	
2.13928	
2.14386	
2.14691	
2.14844	
2.15454	
2.15302	
2.16064	
2.1637	
2.17438	
2.17133	
2.18048	
2.1759	
2.17133	
2.16827	
2.15759	
2.15607	
2.15759	
2.16217	
2.16522	
2.1698	
2.17438	
2.16827	
2.17133	
2.16827	
2.16827	
2.1759	
2.18201	
2.19116	
2.18811	
2.18658	
2.19116	
2.19116	
2.17743	
2.1698	
2.17743	
2.17896	
2.17438	
2.16522	
2.15149	
2.14996	
2.14691	
2.14539	
2.14539	
2.14081	
2.13928	
2.13928	
2.14081	
2.13776	
2.14539	
2.14844	
2.14691	
2.16217	
2.1698	
2.17743	
2.17896	
2.17896	
2.19116	
2.18811	
2.19574	
2.22778	
2.21863	
2.21405	
2.19269	
2.17743	
2.1637	
2.17438	
2.16064	
2.15149	
2.14539	
2.14996	
2.13165	
2.12402	
2.12402	
2.11792	
2.11945	
2.12555	
2.12708	
2.13776	
2.1347	
2.14081	
2.14081	
2.13928	
2.1347	
2.1347	
2.13928	
2.14081	
2.13776	
2.13013	
2.13318	
2.13318	
2.13776	
2.13776	
2.15149	
2.15912	
2.17133	
2.17285	
2.1637	
2.15912	
2.15607	
2.15759	
2.15759	
2.16217	
2.16064	
2.15912	
2.15607	
2.15302	
2.14691	
2.14081	
2.13928	
2.13928	
2.14081	
2.14386	
2.14539	
2.14539	
2.14386	
2.1347	
2.13318	
2.13318	
2.13165	
2.1347	
2.13013	
2.12708	
2.12708	
2.13165	
2.1347	
2.14539	
2.14691	
2.15302	
2.1637	
2.18201	
2.20032	
2.21558	
2.24152	
2.24609	
2.25372	
2.24304	
2.23999	
2.22626	
2.20947	
2.19421	
2.18506	
2.16522	
2.14386	
2.13165	
2.10114	
2.09198	
2.09198	
2.08893	
2.07825	
2.07672	
2.0813	
2.08588	
2.09808	
2.10114	
2.10266	
2.10724	
2.10571	
2.11182	
2.11487	
2.11945	
2.1225	
2.12402	
2.12555	
2.12402	
2.14081	
2.14996	
2.15454	
2.17285	
2.18506	
2.17438	
2.1698	
2.15607	
2.14996	
2.14691	
2.13776	
2.13013	
2.13013	
2.12555	
2.12097	
2.11639	
2.12097	
2.11639	
2.12708	
2.14081	
2.15302	
2.15302	
2.15607	
2.15302	
2.16217	
2.1698	
2.16522	
2.1637	
2.15607	
2.14844	
2.14691	
2.14691	
2.13318	
2.1225	
2.11182	
2.11487	
2.12097	
2.11792	
2.11945	
2.13013	
2.13013	
2.1286	
2.12402	
2.1225	
2.1286	
2.12708	
2.13928	
2.13928	
2.14081	
2.14081	
2.16064	
2.15759	
2.1698	
2.17438	
2.16064	
2.15759	
2.15759	
2.14691	
2.1347	
2.13165	
2.1225	
2.11639	
2.11029	
2.10114	
2.09961	
2.09503	
2.09503	
2.09808	
2.09045	
2.09503	
2.10266	
2.10266	
2.10724	
2.10724	
2.10724	
2.11334	
2.11334	
2.10876	
2.11029	
2.11792	
2.13318	
2.14081	
2.14691	
2.15607	
2.15912	
2.15759	
2.16064	
2.17133	
2.17133	
2.15759	
2.15454	
2.14539	
2.13776	
2.12555	
2.11945	
2.1225	
2.13928	
2.13165	
2.1286	
2.12402	
2.11945	
2.10571	
2.09961	
2.10724	
2.10724	
2.13928	
2.17133	
2.17438	
2.1698	
2.16217	
2.14081	
2.12708	
2.10724	
2.10571	
2.09961	
2.10266	
2.09808	
2.09503	
2.09045	
2.09351	
2.13013	
2.15759	
2.19421	
2.20795	
2.20795	
2.20642	
2.19421	
2.18201	
2.17438	
2.15302	
2.14233	
2.13776	
2.11487	
2.09045	
2.07062	
2.05536	
2.05688	
2.06299	
2.06451	
2.05688	
2.05231	
2.05688	
2.06757	
2.0752	
2.07672	
2.07672	
2.08588	
2.09198	
2.09808	
2.10266	
2.11029	
2.11182	
2.1286	
2.1347	
2.1347	
2.13776	
2.14233	
2.1347	
2.13318	
2.1225	
2.11639	
2.11334	
2.11945	
2.1225	
2.11945	
2.10724	
2.09961	
2.08893	
2.08282	
2.08282	
2.08435	
2.08282	
2.0874	
2.09351	
2.09503	
2.09961	
2.10571	
2.10724	
2.10876	
2.11487	
2.12097	
2.12555	
2.15912	
2.1698	
2.18811	
2.19116	
2.18201	
2.17438	
2.16064	
2.14386	
2.12555	
2.11334	
2.09808	
2.0874	
2.07825	
2.07062	
2.07672	
2.0813	
2.06909	
2.06909	
2.06757	
2.07214	
2.07977	
2.0874	
2.08893	
2.09656	
2.09961	
2.11029	
2.11487	
2.1286	
2.12097	
2.12555	
2.14081	
2.15149	
2.16217	
2.16827	
2.16217	
2.16217	
2.15759	
2.15607	
2.14691	
2.1347	
2.13318	
2.11945	
2.10114	
2.09503	
2.09351	
2.0874	
2.07825	
2.07062	
2.08435	
2.0874	
2.08893	
2.09656	
2.11487	
2.11487	
2.11639	
2.11945	
2.11792	
2.11945	
2.10876	
2.10266	
2.10266	
2.10114	
2.09961	
2.09656	
2.09961	
2.09656	
2.09503	
2.09656	
2.10724	
2.10724	
2.09961	
2.09656	
2.09351	
2.09198	
2.09198	
2.0874	
2.09503	
2.10114	
2.09656	
2.09503	
2.10266	
2.12555	
2.1286	
2.14233	
2.14844	
2.14539	
2.15759	
2.18506	
2.20032	
2.21252	
2.21863	
2.21252	
2.18658	
2.17438	
2.15302	
2.1286	
2.11487	
2.10266	
2.08893	
2.07825	
2.05994	
2.04773	
2.03705	
2.03857	
2.03552	
2.0401	
2.05383	
2.05536	
2.05231	
2.06146	
2.06909	
2.07977	
2.08588	
2.09045	
2.09351	
2.09351	
2.09351	
2.10876	
2.11182	
2.11182	
2.11334	
2.12097	
2.11792	
2.12402	
2.11639	
2.11487	
2.12708	
2.12402	
2.12097	
2.11487	
2.11334	
2.11182	
2.11334	
2.10114	
2.0874	
2.09198	
2.09808	
2.10724	
2.11639	
2.11334	
2.11639	
2.10114	
2.09351	
2.09961	
2.08893	
2.07672	
2.06757	
2.06299	
2.06299	
2.05994	
2.07062	
2.07062	
2.07825	
2.0813	
2.0813	
2.0813	
2.09045	
2.09351	
2.09351	
2.09808	
2.10571	
2.10114	
2.09198	
2.0874	
2.10724	
2.12402	
2.14386	
2.14539	
2.15149	
2.14996	
2.15759	
2.14844	
2.1347	
2.1225	
2.11792	
2.09961	
2.07062	
2.06146	
2.0462	
2.02789	
2.00806	
2.00958	
2.02789	
2.0752	
2.11029	
2.12708	
2.1225	
2.12097	
2.11487	
2.1225	
2.11792	
2.11792	
2.13165	
2.13928	
2.14539	
2.14386	
2.13776	
2.12708	
2.12402	
2.11182	
2.10724	
2.11182	
2.10266	
2.09961	
2.09808	
2.09656	
2.11029	
2.11487	
2.09961	
2.09045	
2.06451	
2.05231	
2.04773	
2.03857	
2.04926	
2.06146	
2.06909	
2.07977	
2.0874	
2.0752	
2.07977	
2.08282	
2.09351	
2.10876	
2.11029	
2.10876	
2.11182	
2.11639	
2.11182	
2.11487	
2.11945	
2.11334	
2.11792	
2.11792	
2.11487	
2.11182	
2.10266	
2.09503	
2.09503	
2.09961	
2.09961	
2.09808	
2.09808	
2.09198	
2.08435	
2.0874	
2.09198	
2.10724	
2.1286	
2.14233	
2.14844	
2.14539	
2.12708	
2.11029	
2.10266	
2.09808	
2.08588	
2.08435	
2.07672	
2.07825	
2.0752	
2.05688	
2.05078	
2.03247	
2.0401	
2.05078	
2.09503	
2.10724	
2.09351	
2.08588	
2.08435	
2.09045	
2.08282	
2.08435	
2.07214	
2.05841	
2.06146	
2.06909	
2.06909	
2.07062	
2.05841	
2.05994	
2.07825	
2.08893	
2.09351	
2.08435	
2.08282	
2.08588	
2.08435	
2.07825	
2.07977	
2.07977	
2.08588	
2.09351	
2.11639	
2.11792	
2.11029	
2.10876	
2.09808	
2.09045	
2.0813	
2.07672	
2.06909	
2.06299	
2.05994	
2.05536	
2.04926	
2.05231	
2.05383	
2.06757	
2.07062	
2.07977	
2.07672	
2.06909	
2.0813	
2.08435	
2.09961	
2.1286	
2.15149	
2.15302	
2.13318	
2.11487	
2.09961	
2.09808	
2.09045	
2.07977	
2.06757	
2.06299	
2.05536	
2.04926	
2.04926	
2.05231	
2.0462	
2.05536	
2.07214	
2.08893	
2.07825	
2.0874	
2.08893	
2.0874	
2.0874	
2.07062	
2.06757	
2.06604	
2.07062	
2.07062	
2.05994	
2.05078	
2.05536	
2.05688	
2.03857	
2.02789	
2.02179	
2.04773	
2.05994	
2.07062	
2.09045	
2.12402	
2.14996	
2.17133	
2.17285	
2.15454	
2.1286	
2.11639	
2.10876	
2.0874	
2.0813	
2.0752	
2.06604	
2.06299	
2.05231	
2.05536	
2.05994	
2.06146	
2.06451	
2.06146	
2.05383	
2.04926	
2.03705	
2.03552	
2.03705	
2.03857	
2.04163	
2.05536	
2.06757	
2.05994	
2.04773	
2.05231	
2.06757	
2.09808	
2.11334	
2.11945	
2.11639	
2.11792	
2.12402	
2.12097	
2.11334	
2.11639	
2.10266	
2.08588	
2.06604	
2.04926	
2.03094	
2.04468	
2.06146	
2.06909	
2.0752	
2.06757	
2.05536	
2.03857	
2.03247	
2.02637	
2.02942	
2.02637	
2.0462	
2.05841	
2.05078	
2.04468	
2.04773	
2.05383	
2.05078	
2.05231	
2.06299	
2.0752	
2.07214	
2.07825	
2.08282	
2.0813	
2.08282	
2.08588	
2.08282	
2.08588	
2.09045	
2.07672	
2.06909	
2.06909	
2.06299	
2.05994	
2.07214	
2.08588	
2.11029	
2.10876	
2.10114	
2.10266	
2.09656	
2.09351	
2.11487	
2.14386	
2.1286	
2.11334	
2.11334	
2.09961	
2.0813	
2.06757	
2.0462	
2.04468	
2.0401	
2.03857	
2.03247	
2.03857	
2.03552	
2.034	
2.06146	
2.07214	
2.0874	
2.07825	
2.06909	
2.06604	
2.06757	
2.0752	
2.07825	
2.08588	
2.07825	
2.06299	
2.04926	
2.04163	
2.03705	
2.03705	
2.03094	
2.03247	
2.02332	
2.01874	
2.02179	
2.02942	
2.04163	
2.03705	
2.03247	
2.02942	
2.034	
2.03094	
2.0401	
2.03552	
2.04163	
2.0401	
2.04163	
2.04163	
2.0401	
2.04773	
2.05383	
2.05688	
2.04468	
2.04163	
2.05078	
2.05994	
2.06146	
2.06757	
2.0874	
2.08435	
2.08588	
2.08893	
2.09198	
2.11029	
2.11487	
2.10876	
2.10571	
2.09045	
2.08588	
2.07977	
2.07825	
2.06451	
2.05078	
2.06299	
2.07214	
2.07672	
2.08588	
2.08588	
2.08893	
2.08893	
2.09351	
2.10266	
2.09808	
2.07977	
2.06299	
2.03705	
2.00958	
1.99127	
1.99738	
2.03552	
2.0401	
2.02789	
2.01721	
2.01569	
2.01111	
2.01721	
2.02179	
2.03247	
2.03705	
2.0462	
2.0462	
2.05078	
2.0401	
2.05078	
2.04773	
2.04926	
2.06146	
2.06451	
2.05994	
2.04926	
2.03857	
2.03247	
2.03552	
2.05078	
2.04773	
2.03705	
2.03705	
2.034	
2.03247	
2.03552	
2.03705	
2.03857	
2.03857	
2.04468	
2.05536	
2.05383	
2.05383	
2.05688	
2.07825	
2.08893	
2.09656	
2.09045	
2.0813	
2.07214	
2.06451	
2.06299	
2.06604	
2.09045	
2.09961	
2.10724	
2.09351	
2.12402	
2.12708	
2.11029	
2.09198	
2.0752	
2.06451	
2.07672	
2.05536	
2.04773	
2.06299	
2.05841	
2.02637	
2.01721	
2.00195	
2.00195	
2.00195	
2.00195	
2.00348	
1.98975	
1.98975	
1.99738	
2.00043	
2.01111	
2.00958	
2.03247	
2.05536	
2.04926	
2.04163	
2.04468	
2.04926	
2.03705	
2.034	
2.03705	
2.03857	
2.05383	
2.04926	
2.05536	
2.06299	
2.06757	
2.06299	
2.06146	
2.06451	
2.06146	
2.05231	
2.05231	
2.04163	
2.03705	
2.03247	
2.02026	
2.02026	
2.02637	
2.02332	
2.02484	
2.02179	
2.02026	
2.02026	
2.02637	
2.02484	
2.02789	
2.02332	
2.034	
2.05383	
2.06146	
2.07977	
2.11487	
2.14081	
2.14081	
2.14691	
2.13165	
2.12555	
2.12555	
2.13776	
2.12097	
2.09503	
2.07825	
2.05078	
2.04773	
2.02942	
2.01416	
2.00348	
1.98822	
1.99127	
1.97754	
1.98212	
1.99585	
2.00195	
1.99585	
1.99738	
1.99738	
1.99432	
2.00348	
2.00958	
2.02026	
2.02789	
2.0462	
2.05383	
2.03552	
2.0401	
2.04468	
2.04468	
2.05078	
2.05994	
2.06146	
2.06146	
2.05536	
2.05078	
2.05078	
2.04773	
2.04926	
2.0462	
2.03857	
2.03247	
2.02637	
2.02179	
2.01416	
2.00348	
2.02637	
2.03857	
2.04468	
2.05841	
2.06146	
2.06757	
2.06299	
2.05078	
2.06146	
2.06909	
2.07825	
2.08435	
2.07977	
2.0752	
2.06604	
2.06909	
2.06299	
2.05994	
2.06146	
2.0752	
2.06604	
2.05994	
2.06451	
2.05688	
2.04468	
2.034	
2.03552	
2.0401	
2.03552	
2.02942	
2.01416	
2.00653	
1.9989	
1.99432	
2.01111	
2.04468	
2.05994	
2.05994	
2.05841	
2.05383	
2.04926	
2.04163	
2.05841	
2.06604	
2.06757	
2.06909	
2.06909	
2.05841	
2.04773	
2.03094	
2.02484	
2.02789	
2.02942	
2.03552	
2.03094	
2.02484	
2.02484	
2.02332	
2.01111	
2.00958	
2.00043	
2.005	
2.01569	
2.01416	
2.01874	
2.03247	
2.0462	
2.04163	
2.0401	
2.0401	
2.06451	
2.0813	
2.08893	
2.09351	
2.09351	
2.08893	
2.0813	
2.0752	
2.06909	
2.06299	
2.04468	
2.034	
2.03094	
2.02484	
2.02026	
2.00806	
2.00806	
2.00043	
2.00043	
2.00958	
2.03552	
2.07062	
2.09198	
2.09045	
2.08588	
2.09351	
2.09045	
2.07977	
2.0752	
2.06757	
2.05994	
2.05078	
2.05078	
2.04468	
2.04163	
2.0401	
2.02637	
2.02179	
2.02179	
2.02332	
2.01874	
2.01874	
2.03552	
2.03705	
2.03552	
2.034	
2.03247	
2.02789	
2.034	
2.03094	
2.0401	
2.03705	
2.0401	
2.04468	
2.04468	
2.04926	
2.0401	
2.03857	
2.04773	
2.04926	
2.05536	
2.06451	
2.06604	
2.06451	
2.0462	
2.03705	
2.034	
2.03552	
2.02942	
2.02179	
2.00958	
2.005	
2.01569	
2.02942	
2.02332	
2.02789	
2.03247	
2.03247	
2.04926	
2.06299	
2.05841	
2.06604	
2.06909	
2.06451	
2.06451	
2.06451	
2.08435	
2.10571	
2.12555	
2.1347	
2.13013	
2.12097	
2.09656	
2.0813	
2.06757	
2.04163	
2.02484	
2.01569	
2.01111	
1.98669	
1.97296	
1.96533	
1.97601	
1.98669	
1.98212	
1.98212	
1.98669	
1.99738	
2.00043	
2.00195	
2.005	
2.00958	
2.01874	
2.02484	
2.03705	
2.04773	
2.07977	
2.08282	
2.0813	
2.07825	
2.06299	
2.05841	
2.05841	
2.05078	
2.0462	
2.05841	
2.04773	
2.04468	
2.03094	
2.02332	
2.02026	
2.00958	
2.00195	
2.00195	
2.00195	
1.99585	
1.98517	
2.02026	
2.04926	
2.04926	
2.0462	
2.03247	
2.02789	
2.02484	
2.02179	
2.01416	
2.01721	
2.01569	
2.00806	
2.00653	
2.02942	
2.04163	
2.06604	
2.08588	
2.09656	
2.10266	
2.11639	
2.11334	
2.09808	
2.0874	
2.07672	
2.05994	
2.05078	
2.04163	
2.02942	
2.02942	
2.005	
1.98822	
1.98517	
1.99127	
1.98975	
1.97754	
1.98364	
1.97906	
1.97754	
1.98212	
2.00043	
2.02484	
2.02942	
2.06451	
2.0813	
2.0874	
2.0813	
2.07672	
2.06604	
2.06299	
2.05536	
2.05383	
2.0401	
2.03094	
2.02179	
2.01874	
2.02026	
2.02942	
2.02484	
2.02637	
2.02789	
2.03552	
2.08588	
2.11792	
2.11639	
2.11487	
2.11029	
2.11945	
2.12555	
2.11639	
2.08893	
2.06299	
2.04468	
2.01721	
1.99127	
1.98822	
1.99585	
1.98517	
1.97601	
1.96075	
1.94702	
1.94397	
1.94092	
1.93787	
1.97296	
2.01874	
2.04926	
2.05841	
2.06757	
2.05841	
2.04926	
2.04163	
2.02942	
2.0401	
2.034	
2.02637	
2.02942	
2.02179	
2.03247	
2.034	
2.01874	
2.00806	
2.00043	
1.9928	
1.9928	
1.9928	
1.9928	
1.97601	
1.96381	
1.96228	
1.96381	
1.9577	
1.96228	
1.96838	
1.96838	
1.97296	
1.97906	
1.98822	
1.98669	
1.99127	
1.99585	
2.00348	
2.00195	
2.00195	
1.99585	
2.00043	
2.00043	
1.99738	
2.00348	
2.00195	
2.00043	
2.00348	
2.00195	
2.01721	
2.01416	
2.00195	
2.00806	
2.01721	
2.0401	
2.03705	
2.0401	
2.03857	
2.03247	
2.03094	
2.02179	
2.02484	
2.02026	
2.01721	
2.01874	
2.01111	
2.00348	
2.00806	
2.00958	
2.00043	
2.00043	
2.00195	
2.005	
1.9989	
1.99738	
2.00195	
2.00195	
1.99738	
1.99432	
1.9928	
1.98975	
1.97906	
1.97296	
1.96686	
1.96228	
1.97449	
1.98364	
2.00043	
2.01721	
2.02789	
2.02484	
2.02179	
2.02026	
2.02026	
2.01721	
2.01721	
2.01416	
2.01416	
2.01111	
2.01111	
2.01416	
2.00958	
2.01111	
2.01111	
2.01111	
2.01111	
2.01111	
2.00653	
2.00806	
2.00806	
2.00958	
2.01111	
2.00958	
2.00958	
2.01111	
2.00806	
2.00195	
2.00195	
2.00043	
2.00653	
2.005	
2.01569	
2.01416	
2.01111	
2.005	
2.00653	
2.00806	
2.01416	
2.01569	
2.02179	
2.02637	
2.03247	
2.04163	
2.03857	
2.0401	
2.03247	
2.02942	
2.04468	
2.04926	
2.04773	
2.03552	
2.02484	
2.01111	
1.99738	
1.99432	
1.98822	
1.98364	
1.99127	
1.99432	
1.99738	
1.99738	
1.99585	
2.00958	
2.01569	
2.02332	
2.02637	
2.02484	
2.02026	
2.01874	
2.034	
2.03705	
2.0462	
2.0462	
2.05078	
2.05078	
2.03705	
2.02026	
2.00958	
2.00043	
2.00806	
2.00348	
2.00195	
2.00958	
2.01569	
2.01111	
2.00348	
2.005	
1.99432	
2.00653	
2.03705	
2.03857	
2.04773	
2.05078	
2.0462	
2.03247	
2.03705	
2.03247	
2.02637	
2.034	
2.02026	
2.00195	
1.9928	
1.9928	
1.98212	
1.97754	
1.97296	
1.97144	
1.98669	
1.98669	
2.00348	
2.00806	
2.00348	
2.005	
2.0401	
2.04926	
2.05231	
2.05841	
2.05688	
2.04926	
2.0401	
2.02789	
2.02179	
2.00653	
2.01569	
2.01569	
2.02332	
2.01569	
2.00958	
2.01721	
2.01569	
2.01111	
2.02789	
2.03247	
2.02637	
2.01721	
2.02484	
2.02637	
2.01874	
2.01874	
2.00043	
1.98822	
1.99432	
1.98364	
1.97601	
1.96686	
1.97296	
1.97144	
1.97754	
1.97601	
1.97144	
1.97601	
1.97296	
1.97601	
1.98669	
1.98975	
2.00043	
2.005	
2.005	
2.00195	
2.00043	
2.03857	
2.04468	
2.08435	
2.11182	
2.12097	
2.12097	
2.11792	
2.13013	
2.11639	
2.11182	
2.09656	
2.07825	
2.06146	
2.04468	
2.0752	
2.0874	
2.09198	
2.09656	
2.09351	
2.1286	
2.15759	
2.13165	
2.09503	
2.07214	
2.03552	
1.98975	
1.96533	
1.9516	
1.93634	
1.91498	
1.89514	
1.87225	
1.85852	
1.87378	
1.87836	
1.90735	
1.92871	
1.9455	
1.96075	
1.97449	
1.98822	
2.00043	
2.00958	
2.00806	
2.01721	
2.01874	
2.02942	
2.034	
2.02942	
2.02026	
2.005	
1.98975	
1.98975	
1.96991	
1.98669	
1.9928	
2.01721	
2.02332	
2.02026	
2.00806	
2.01569	
2.03094	
2.03552	
2.02637	
2.02179	
2.02026	
2.01721	
2.01569	
2.01569	
2.01416	
2.01721	
2.01111	
2.00806	
2.005	
2.00195	
1.9989	
2.00043	
2.00958	
2.01111	
2.03705	
2.06909	
2.09808	
2.14081	
2.15607	
2.15759	
2.15912	
2.14844	
2.13165	
2.10724	
2.11334	
2.0752	
2.0813	
2.16064	
2.18353	
2.18201	
2.18658	
2.22321	
2.20337	
2.17743	
2.13776	
2.09808	
2.05688	
2.02789	
1.99585	
1.95618	
1.9104	
1.88446	
1.87531	
1.86005	
1.8631	
1.89362	
1.9165	
1.91803	
1.94397	
1.97601	
1.96686	
1.96381	
1.96228	
2.00958	
2.02332	
2.01874	
2.00806	
2.01111	
2.04163	
2.034	
2.02484	
1.99738	
1.98364	
1.9928	
2.01874	
2.09198	
2.22015	
2.25677	
2.24457	
2.21558	
2.18506	
2.16217	
2.13165	
2.09503	
2.07825	
2.03705	
2.00653	
1.96533	
1.92719	
1.91803	
1.91803	
1.89514	
1.89209	
1.88904	
1.88446	
1.89819	
1.94702	
2.03705	
2.17743	
2.23999	
2.28271	
2.31323	
2.31934	
2.27356	
2.22778	
2.18964	
2.14539	
2.10724	
2.05841	
2.00195	
2.02332	
2.05841	
2.08893	
2.08282	
2.07214	
2.06146	
2.02179	
1.97296	
1.94855	
1.92871	
1.89514	
1.87531	
1.87836	
1.88141	
1.88446	
1.87836	
1.87378	
1.91193	
1.92566	
1.93024	
1.92719	
1.92719	
1.93329	
2.02789	
2.17133	
2.20337	
2.19879	
2.21405	
2.2049	
2.18353	
2.14081	
2.11182	
2.11792	
2.13928	
2.09808	
2.05688	
2.06909	
2.05536	
2.07214	
2.0462	
2.02789	
1.99432	
2.00195	
2.01416	
2.02484	
2.02026	
2.0462	
2.07062	
2.06909	
2.04773	
2.08435	
2.11639	
2.10571	
2.16064	
2.16827	
2.15759	
2.18964	
2.2522	
2.30713	
2.36206	
2.34528	
2.3056	
2.29187	
2.23999	
2.15607	
2.11334	
2.0813	
2.02332	
1.96228	
1.92108	
1.86768	
1.85242	
1.88141	
1.88293	
1.84784	
1.87836	
1.92108	
2.02332	
2.07825	
2.2583	
2.34528	
2.34833	
2.31171	
2.25372	
2.16217	
2.09503	
2.01874	
1.93787	
1.88293	
1.82953	
1.77917	
1.74866	
1.80054	
1.9516	
2.18353	
2.3941	
2.4292	
2.40479	
2.33459	
2.2644	
2.21863	
2.36053	
2.48566	
2.45209	
2.36664	
2.26898	
2.12402	
2.005	
1.93329	
1.89209	
1.97144	
1.97144	
1.95923	
2.05231	
2.10571	
2.22473	
2.48566	
2.79083	
3.02582	
3.16315	
3.21198	
3.30658	
3.23334	
3.05023	
3.27454	
4.07867	
4.18396	
3.9566	
3.67584	
3.30811	
2.84882	
2.4704	
2.20032	
1.97754	
1.75476	
1.50604	
1.25275	
1.08948	
1.2085	
1.53046	
1.66626	
1.76239	
1.90125	
2.21405	
2.24152	
2.24152	
2.17743	
2.05841	
1.89209	
1.74255	
1.64795	
1.52893	
1.38245	
1.48163	
1.65863	
1.72119	
1.85242	
1.92871	
1.96686	
2.01721	
2.07062	
2.15912	
2.1286	
2.12555	
2.04163	
1.9928	
1.88904	
1.83105	
1.83258	
1.7868	
1.71967	
1.69678	
1.67389	
1.66321	
1.71356	
1.78223	
1.82953	
1.89209	
1.99432	
2.16064	
2.28119	
2.41699	
2.52991	
2.5238	
2.45514	
2.38953	
2.32697	
2.21558	
2.09351	
2.01416	
1.94397	
1.75934	
1.69373	
1.66931	
1.70898	
1.87073	
2.26288	
2.72217	
3.01514	
3.10822	
3.0838	
3.0777	
3.23792	
3.09448	
2.84424	
2.54974	
2.24457	
1.91345	
1.71509	
1.64185	
1.53046	
1.50146	
1.45264	
1.42822	
1.41602	
1.60828	
1.83258	
2.14844	
2.31018	
2.54822	
2.59399	
2.59857	
2.58026	
2.44904	
2.33765	
2.27814	
2.31476	
2.24762	
2.12708	
1.99127	
1.94397	
1.8692	
1.81885	
1.79138	
1.80817	
1.88446	
1.94092	
1.9455	
2.03705	
1.99585	
2.05841	
2.15912	
2.23236	
2.23083	
2.19879	
2.15759	
2.10876	
2.05231	
2.08282	
2.42462	
2.59552	
2.59705	
2.5238	
2.40936	
2.2934	
2.16522	
2.09045	
2.06146	
1.99432	
2.05841	
2.33765	
2.45361	
2.54974	
2.49481	
2.39868	
2.38953	
2.36053	
2.23236	
2.10114	
1.91193	
1.75781	
1.72424	
1.69678	
1.74408	
1.81427	
2.00653	
2.05078	
2.21405	
2.23389	
2.22473	
2.17896	
2.19879	
2.1759	
2.15302	
2.0813	
2.05383	
2.03705	
2.00043	
1.97754	
1.95465	
1.93329	
1.98364	
1.98975	
2.005	
2.04468	
2.09198	
2.11182	
2.11945	
2.16217	
2.21405	
2.22778	
2.20337	
2.19269	
2.18811	
2.1759	
2.26746	
2.27356	
2.26135	
2.27051	
2.28729	
2.28424	
2.2522	
2.20032	
2.13165	
2.10724	
2.08435	
2.13165	
2.18201	
2.23389	
2.26746	
2.26288	
2.22321	
2.14996	
2.1347	
2.11182	
2.12402	
2.17743	
2.23694	
2.32697	
2.31934	
2.30408	
2.31628	
2.43378	
2.45361	
2.4353	
2.30255	
2.34528	
2.32239	
2.23999	
2.1286	
1.94702	
1.94092	
1.9104	
1.95465	
2.0401	
2.14996	
2.2644	
2.2934	
2.28729	
2.27356	
2.25067	
2.25677	
2.31628	
2.39105	
2.36816	
2.37274	
2.31018	
2.33765	
2.33002	
2.33612	
2.26746	
2.13928	
2.02637	
1.99432	
2.005	
2.04468	
2.05078	
2.01111	
2.05383	
2.06299	
2.08588	
2.08435	
2.09656	
2.09656	
2.11334	
2.15759	
2.19421	
2.23236	
2.30713	
2.36969	
2.35138	
2.3407	
2.33917	
2.39563	
2.30713	
2.23694	
2.19421	
2.22015	
2.18506	
2.17896	
2.22015	
2.22473	
2.19574	
2.18811	
2.19116	
2.22168	
2.26593	
2.21863	
2.1637	
2.16522	
2.19116	
2.21405	
2.20642	
2.24152	
2.31476	
2.388	
2.46735	
2.44141	
2.41089	
2.26746	
2.11945	
1.9455	
1.98975	
2.10876	
2.2049	
2.18811	
2.21252	
2.18658	
2.18353	
2.1286	
2.07062	
2.03857	
2.09351	
2.09961	
2.11792	
2.14081	
2.1637	
2.19879	
2.22473	
2.23999	
2.24915	
2.22015	
2.19269	
2.19116	
2.21405	
2.27661	
2.34222	
2.37885	
2.30408	
2.31171	
2.26288	
2.24762	
2.1698	
2.15302	
2.11334	
2.14691	
2.18811	
2.28424	
2.37122	
2.40936	
2.40936	
2.37274	
2.31476	
2.25677	
2.2644	
2.32544	
2.34528	
2.28882	
2.2644	
2.2934	
2.39258	
2.37427	
2.31781	
2.22626	
2.09656	
2.04926	
2.04468	
1.96075	
1.92871	
1.96686	
2.03552	
2.09961	
2.14691	
2.21558	
2.26135	
2.28882	
2.27814	
2.24152	
2.1637	
2.11945	
2.0813	
2.11334	
2.19421	
2.28119	
2.38953	
2.43988	
2.48566	
2.45056	
2.4231	
2.34833	
2.08435	
2.02942	
2.02484	
2.14081	
2.08893	
2.01721	
2.01416	
2.05231	
2.06451	
2.14386	
2.19421	
2.2171	
2.27356	
2.31018	
2.30255	
2.29645	
2.20642	
2.1759	
2.13776	
2.17743	
2.16522	
2.0874	
2.09045	
2.14539	
2.18353	
2.23999	
2.31018	
2.34375	
2.33307	
2.29492	
2.16064	
2.14996	
2.07977	
1.98212	
1.97296	
1.96533	
1.97754	
1.98364	
1.99432	
2.15454	
2.20337	
2.24762	
2.2583	
2.24304	
2.21863	
2.11334	
2.03552	
2.03552	
2.10571	
2.10571	
2.05383	
2.12097	
2.14996	
2.11792	
2.11639	
2.07825	
2.03857	
1.98975	
2.00653	
2.02026	
2.11334	
2.12708	
2.15607	
2.18506	
2.19879	
2.22015	
2.06299	
1.93176	
1.91498	
1.94092	
1.93329	
1.89514	
1.90582	
1.81885	
1.91193	
1.97449	
2.08435	
2.22473	
2.2995	
2.30103	
2.18964	
2.03094	
2.07672	
1.99432	
1.9989	
1.90125	
1.89972	
1.92261	
1.90582	
1.85852	
1.85394	
1.98364	
2.12708	
2.19879	
2.20642	
2.09198	
1.93481	
2.04163	
1.97601	
1.9165	
1.79901	
1.87225	
1.87988	
1.87836	
1.84784	
1.80359	
1.77765	
1.78833	
1.86157	
2.02789	
2.23541	
2.42157	
2.47955	
2.46124	
2.29645	
2.18048	
2.02332	
1.81885	
1.74561	
1.73492	
1.81122	
1.86768	
1.75629	
1.70135	
1.6922	
1.71204	
1.77765	
1.84631	
1.97296	
2.07825	
2.10266	
2.14081	
2.09045	
2.0462	
2.0752	
1.95313	
1.89514	
1.88599	
1.91498	
1.93176	
1.80511	
1.90277	
1.89362	
1.89514	
1.94092	
1.98517	
1.97601	
1.98364	
1.8692	
1.92108	
1.94397	
1.90277	
1.94855	
2.02637	
2.12555	
2.15454	
2.14386	
2.14996	
2.02332	
1.93329	
1.82343	
1.74561	
1.6922	
1.7807	
1.80969	
1.93634	
1.96381	
2.02179	
2.0462	
2.15607	
2.29187	
2.2995	
2.29645	
2.23389	
2.10571	
2.0752	
1.95313	
1.75629	
1.80969	
1.86615	
1.9043	
1.92566	
1.83716	
1.79138	
1.8692	
1.98517	
2.01721	
2.04926	
2.10876	
2.07214	
2.00348	
1.8631	
1.83563	
1.80359	
1.81122	
1.83563	
1.87683	
1.92413	
2.005	
2.07672	
2.09808	
2.16064	
2.12708	
2.15454	
2.22473	
2.14081	
2.04468	
1.9455	
1.80969	
1.65863	
1.651	
1.75018	
1.77765	
1.85242	
2.01111	
2.0874	
2.11029	
2.09045	
2.05536	
2.03552	
2.01416	
1.91803	
1.72424	
1.70441	
1.80664	
1.82495	
1.89514	
1.95618	
2.02637	
2.02026	
2.02179	
2.05536	
2.03705	
2.02942	
1.95618	
2.08282	
2.08282	
2.11487	
2.08435	
1.96381	
1.97296	
1.9577	
1.86768	
1.85394	
1.86615	
1.87988	
1.97601	
2.06451	
2.11792	
2.11945	
2.06604	
2.04773	
2.13318	
2.08588	
2.1759	
2.09045	
2.01111	
1.99127	
1.9928	
1.94702	
1.74561	
1.84326	
2.04773	
2.22015	
2.25525	
2.19421	
2.09351	
1.94092	
1.6983	
1.58539	
1.72272	
1.80359	
1.90582	
2.14691	
2.44751	
2.49023	
2.44751	
2.30255	
2.04926	
1.84937	
1.72424	
1.66931	
1.71356	
1.72882	
1.80054	
1.91345	
1.98822	
2.06299	
2.20184	
2.41699	
2.51617	
2.46429	
2.33765	
2.20795	
2.15454	
1.94702	
1.80664	
1.74713	
1.70746	
1.73645	
1.75934	
1.78375	
1.82343	
1.94244	
2.02484	
2.11487	
2.19269	
2.388	
2.36053	
2.31781	
2.1759	
2.08282	
1.9043	
1.828	
1.828	
1.87988	
1.92566	
2.0401	
2.1347	
2.22168	
2.49176	
2.49634	
2.40936	
2.2522	
2.02332	
1.89514	
1.74866	
1.63422	
1.70593	
1.84174	
1.93329	
1.98212	
2.00348	
1.96838	
1.94702	
1.99585	
2.06146	
2.09656	
2.10876	
2.15454	
2.23694	
2.2171	
2.14844	
2.09045	
2.19269	
2.10571	
2.06604	
2.09503	
2.03857	
1.94092	
1.85547	
1.84174	
1.87378	
1.87073	
1.87378	
1.88904	
1.89819	
1.95923	
2.01111	
2.02789	
2.05688	
2.12402	
2.14386	
2.18048	
2.15454	
2.17133	
2.18658	
2.0462	
2.00806	
1.88293	
1.86462	
1.83258	
1.92108	
1.99127	
2.01416	
2.005	
2.05383	
2.05841	
2.05078	
2.05536	
2.02179	
2.01416	
2.03552	
2.07825	
2.09808	
2.09656	
2.05536	
1.97906	
1.96838	
2.0462	
2.09808	
2.20795	
2.33765	
2.30713	
2.28119	
2.21252	
2.12402	
1.89362	
1.73645	
1.79138	
1.79901	
1.828	
1.92719	
1.97296	
1.98975	
2.03094	
2.13165	
2.18201	
2.22626	
2.21405	
2.14691	
2.05383	
1.99127	
1.96075	
2.03857	
2.02332	
2.00348	
2.05231	
2.04468	
2.08282	
2.22473	
2.16827	
2.1286	
2.09808	
2.02484	
1.89514	
1.89972	
1.91345	
2.005	
2.04163	
2.06146	
2.1286	
2.10266	
2.03705	
1.97449	
1.98822	
2.02942	
2.10571	
2.16522	
2.19116	
2.11792	
2.01569	
2.005	
2.02789	
1.95923	
1.9043	
1.94244	
2.01569	
2.05994	
2.12555	
2.22321	
2.35443	
2.35596	
2.23389	
2.11639	
2.01416	
1.89819	
1.77155	
1.82037	
1.89209	
1.92261	
1.99585	
1.99127	
2.02484	
2.02942	
2.06146	
2.05383	
2.03857	
2.0401	
2.06451	
2.02179	
2.00195	
2.03552	
2.13013	
2.18048	
2.24915	
2.28882	
2.23846	
2.13013	
1.9516	
1.87378	
1.83105	
1.87378	
1.8631	
1.88904	
1.95313	
1.95313	
1.98517	
2.02332	
2.06299	
2.08435	
2.06299	
2.19421	
2.15454	
2.09045	
2.03705	
2.05078	
2.11029	
2.06146	
2.13776	
2.23846	
2.1637	
2.02179	
1.8692	
1.93481	
2.034	
2.01874	
2.01721	
2.16827	
2.23846	
2.1637	
2.10571	
2.12708	
2.16522	
2.1347	
2.02789	
1.99585	
1.93634	
1.89514	
1.85242	
1.84937	
1.80664	
1.87988	
1.88293	
1.89819	
1.97449	
2.07214	
2.14233	
2.11029	
2.12402	
2.09808	
2.09503	
2.04468	
1.97296	
1.97144	
1.93939	
2.01569	
2.04163	
2.05078	
2.0401	
2.10114	
2.09808	
2.07825	
2.11182	
2.01721	
1.96838	
1.98212	
1.96533	
1.96533	
1.94397	
1.89514	
1.93176	
1.99432	
2.04773	
2.05841	
2.10876	
2.08282	
2.11334	
2.13165	
2.07214	
2.08282	
2.12402	
2.08435	
2.06146	
2.06757	
2.3056	
2.38037	
2.33307	
2.2171	
2.12402	
2.03552	
1.94397	
1.87073	
1.88599	
2.18658	
2.21558	
2.19116	
2.20947	
2.05383	
1.95313	
1.90582	
1.828	
1.73645	
1.70746	
1.76849	
1.83563	
1.92413	
1.99738	
2.05383	
2.08282	
2.15912	
2.20337	
2.20184	
2.10571	
2.05536	
1.97754	
1.8631	
1.88293	
1.90735	
1.97906	
2.034	
2.05383	
2.05994	
2.07672	
2.06451	
2.17743	
2.27509	
2.32849	
2.24915	
2.13013	
2.03094	
1.89514	
1.75171	
1.6922	
1.67389	
1.8158	
1.94092	
2.0401	
2.22473	
2.34528	
2.33002	
2.24152	
2.21863	
2.07672	
1.89667	
1.73492	
1.66779	
1.77002	
1.83563	
1.88141	
1.9043	
1.93024	
2.11334	
2.16217	
2.25372	
2.27814	
2.21405	
2.15759	
1.99432	
1.92871	
2.02484	
2.03552	
1.9577	
1.93939	
1.97906	
1.93329	
1.91803	
1.96838	
2.05841	
2.11639	
2.17133	
2.18964	
2.27814	
2.26135	
2.2644	
2.25067	
2.24304	
2.20184	
2.13928	
2.02637	
1.86462	
1.69983	
1.62048	
1.65863	
1.77917	
1.7807	
1.8219	
1.92871	
2.1347	
2.19879	
2.24457	
2.20795	
2.17133	
2.10571	
1.9577	
1.828	
1.83716	
1.87683	
1.89819	
1.93176	
1.92719	
1.87073	
1.87225	
1.9455	
2.02789	
2.14081	
2.22321	
2.47192	
2.4826	
2.40631	
2.25372	
2.05994	
1.97144	
1.71051	
1.50452	
1.68762	
1.77307	
1.80054	
1.8158	
1.8631	
1.88904	
1.89972	
1.92108	
1.94244	
1.96991	
1.98517	
1.99738	
2.02026	
2.08893	
2.1225	
2.11182	
2.13776	
2.14539	
2.11182	
2.03094	
1.97449	
2.07214	
2.07062	
2.04926	
2.00043	
1.95618	
1.96381	
1.94855	
1.90887	
1.97601	
1.9577	
1.98822	
2.05383	
2.05688	
2.01721	
2.00043	
2.03247	
1.9989	
2.06451	
2.00348	
1.97449	
2.01111	
1.9516	
1.93481	
1.9043	
1.8692	
1.90887	
1.9989	
2.04468	
2.11029	
2.1637	
2.22473	
2.27356	
2.28271	
2.22321	
2.15302	
2.06757	
1.90582	
1.77307	
1.74713	
1.73187	
1.78528	
1.85852	
1.86157	
1.86462	
1.88293	
1.89209	
1.90887	
1.92261	
1.97144	
2.01111	
2.15302	
2.27356	
2.27203	
2.22168	
2.1286	
2.00348	
1.91345	
1.84784	
1.79291	
1.80054	
1.83258	
1.87683	
1.94702	
1.96228	
2.00348	
2.01416	
2.02484	
2.02789	
2.05231	
2.02637	
1.92719	
1.88599	
1.92871	
1.95313	
1.92261	
1.85547	
1.87073	
1.89819	
1.93024	
1.98364	
2.01721	
2.08893	
2.16827	
2.21558	
2.22778	
2.22473	
2.09198	
1.97754	
1.83411	
1.75171	
1.81122	
1.79138	
1.82037	
1.87531	
1.94244	
1.99585	
2.13013	
2.32239	
2.44904	
2.44904	
2.34985	
2.14691	
1.88141	
1.77155	
1.6037	
1.60675	
1.73645	
1.81274	
1.84937	
1.87988	
1.92108	
1.98364	
2.00958	
2.05536	
2.11182	
2.10266	
2.03705	
1.98669	
1.90125	
1.90887	
1.85394	
1.83716	
1.93024	
2.0401	
2.11487	
2.14691	
2.19574	
2.18964	
2.09808	
2.01569	
1.91803	
1.90887	
1.96838	
1.90735	
1.92413	
2.02637	
2.23999	
2.37732	
2.36816	
2.31323	
2.26746	
2.15149	
2.03552	
1.8219	
1.80664	
1.80206	
1.74866	
1.8158	
1.85394	
1.8158	
1.77612	
1.76849	
1.85547	
2.03552	
2.25677	
2.35596	
2.43835	
2.36206	
2.28119	
1.99127	
1.66168	
1.53503	
1.60675	
1.70746	
1.74255	
1.76239	
1.81732	
1.81274	
1.81427	
1.81885	
1.83563	
1.8631	
1.90125	
1.96075	
1.96228	
1.97296	
1.99432	
2.00348	
1.97296	
1.94855	
2.00348	
2.07672	
2.13928	
2.2171	
2.19421	
2.1225	
2.09045	
1.9577	
1.89667	
1.87836	
1.89209	
1.87988	
1.87225	
1.85242	
1.86157	
1.87988	
1.85394	
1.90277	
1.89972	
1.9104	
1.9165	
1.89667	
1.89514	
1.93024	
1.99127	
2.04773	
2.06146	
2.04163	
2.02179	
2.00043	
2.00195	
1.92566	
1.88599	
1.86005	
1.84784	
1.84937	
1.87531	
1.90887	
1.93939	
1.96533	
1.94855	
1.93329	
1.91803	
1.88141	
1.87836	
1.87683	
1.87531	
1.90125	
1.89819	
1.9043	
1.91193	
1.9165	
1.92413	
1.92566	
1.92566	
1.92261	
1.92413	
1.92566	
1.92566	
1.93024	
1.92719	
1.92719	
1.93024	
1.92719	
1.92566	
1.92413	
1.92566	
1.93329	
1.93481	
1.93176	
1.93939	
1.93329	
1.93329	
1.93329	
1.93329	
1.93481	
1.94092	
1.93787	
1.93634	
1.93787	
1.94092	
1.93787	
1.93481	
1.93939	
1.94092	
1.93939	
1.94244	
1.93787	
1.93024	
1.93176	
1.93024	
1.93024	
1.93176	
1.93176	
1.92719	
1.92719	
1.92719	
1.92719	
1.92566	
1.92413	
1.92719	
1.92871	
1.93176	
1.93329	
1.93024	
1.92413	
1.92413	
1.92719	
1.92719	
1.92871	
1.92871	
1.92413	
1.92719	
1.92719	
1.92413	
1.92413	
1.92719	
1.92871	
1.93329	
1.93024	
1.93329	
1.92719	
1.92261	
1.93024	
1.92566	
1.92261	
1.92566	
1.92413	
1.92108	
1.92413	
1.93024	
1.92719	
1.92566	
1.92413	
1.93024	
1.93024	
1.93176	
1.93176	
1.92871	
1.92719	
1.92871	
1.92871	
1.92871	
1.92719	
1.92719	
1.92871	
1.92719	
1.92719	
1.93024	
1.92719	
1.93024	
1.93176	
1.93787	
1.93634	
1.93787	
1.93176	
1.93481	
1.93176	
1.93176	
1.93329	
1.93329	
1.93481	
1.93329	
1.93634	
1.93176	
1.93329	
1.93481	
1.93329	
1.93634	
1.93481	
1.93634	
1.93634	
1.93481	
1.93634	
1.93787	
1.93939	
1.94092	
1.93787	
1.93634	
1.93634	
1.93329	
1.93176	
1.93024	
1.93329	
1.94397	
1.94244	
1.94702	
1.94702	
1.94244	
1.94244	
1.93939	
1.93939	
1.93939	
1.93939	
1.94092	
1.94244	
1.94855	
1.94855	
1.94855	
1.94397	
1.95465	
1.9577	
1.96533	
1.96533	
1.96838	
1.96381	
1.96686	
1.95923	
1.95313	
1.9455	
1.96228	
1.96686	
1.96838	
1.97144	
1.97144	
1.97144	
1.98212	
1.9928	
2.00195	
2.01416	
2.02942	
2.02789	
2.03094	
2.02789	
2.01874	
2.02332	
1.9928	
1.95618	
1.94397	
1.95313	
1.97144	
1.97601	
1.98517	
2.00195	
2.01111	
2.02026	
2.02637	
2.01874	
2.01874	
2.03094	
2.00195	
1.98669	
1.97144	
1.96838	
1.96686	
1.97296	
1.98975	
2.00043	
2.00653	
2.005	
2.00958	
2.00806	
1.9989	
2.00653	
2.01111	
1.98669	
2.01569	
2.01721	
1.98517	
1.98212	
1.98517	
1.99738	
1.99127	
1.98822	
1.97754	
1.97296	
1.97144	
1.97296	
1.98212	
1.98669	
1.98364	
1.98517	
1.98669	
1.98517	
1.98669	
1.99432	
1.9928	
1.99432	
1.98669	
1.99127	
1.99585	
2.00806	
2.01416	
2.005	
2.00195	
2.00653	
2.03552	
2.05688	
2.02484	
1.99738	
1.96228	
1.98822	
2.03705	
2.05536	
2.06909	
2.08282	
2.0752	
2.06146	
2.03857	
2.005	
2.00043	
1.99127	
1.96991	
1.94244	
1.93329	
1.93329	
1.94855	
1.98364	
2.01416	
2.01874	
2.01721	
2.02332	
2.0401	
2.03857	
2.034	
2.03857	
2.03705	
2.01569	
1.98975	
1.97296	
1.99127	
1.99738	
1.97449	
1.97144	
1.97144	
1.98822	
1.99127	
1.99738	
1.9989	
1.9989	
2.00958	
2.01416	
2.00958	
2.00806	
2.01569	
2.01569	
2.03552	
2.0401	
2.02942	
2.02942	
2.02942	
2.02942	
2.03247	
2.02637	
2.02789	
2.03705	
2.0462	
2.03094	
2.04163	
2.04163	
2.04163	
2.04773	
2.04468	
2.04926	
2.05688	
2.05231	
2.05536	
2.05536	
2.05536	
2.05536	
2.04926	
2.03705	
2.04926	
2.06299	
2.06451	
2.06604	
2.09351	
2.0874	
2.13928	
2.16522	
2.1637	
2.14233	
2.14844	
2.14996	
2.12708	
2.11487	
2.1225	
2.1225	
2.09961	
2.05841	
2.03705	
2.02637	
2.01416	
2.02484	
2.02332	
2.00348	
2.01111	
2.00195	
2.02179	
2.0874	
2.10571	
2.11945	
2.11792	
2.10571	
2.0874	
2.06757	
2.05383	
2.034	
2.02484	
2.005	
1.99127	
1.98975	
1.9989	
1.99738	
2.00806	
2.01874	
2.02789	
2.03094	
2.034	
2.03705	
2.04163	
2.04163	
2.0401	
2.04163	
2.0401	
2.034	
2.03247	
2.034	
2.04468	
2.03705	
2.034	
2.03552	
2.034	
2.034	
2.03094	
2.02942	
2.034	
2.02332	
2.02637	
2.02789	
2.02179	
2.02179	
2.01569	
2.00958	
2.01416	
1.9989	
2.00958	
2.02179	
2.02637	
2.02332	
2.02026	
2.02026	
2.01874	
2.01111	
2.00958	
2.01416	
2.01416	
2.00653	
2.00043	
1.99127	
1.99738	
1.97144	
1.96991	
1.98212	
1.99432	
1.99127	
1.99432	
2.01569	
2.0813	
2.15302	
2.1637	
2.15759	
2.15607	
2.14233	
2.09961	
2.05078	
2.01111	
1.98822	
1.96075	
1.96381	
1.96838	
1.97906	
1.94702	
1.92719	
1.92719	
1.9516	
1.94855	
1.95313	
1.93329	
1.92108	
1.92413	
1.9165	
1.90735	
1.92108	
1.9455	
1.95923	
1.95923	
1.96686	
1.97601	
1.97144	
1.96381	
1.96075	
1.9577	
1.96991	
1.95923	
1.95923	
1.96991	
1.96075	
1.95313	
1.93176	
1.93329	
1.9165	
1.92261	
1.91345	
1.89972	
1.89667	
1.89209	
1.90125	
1.90125	
1.89514	
1.89972	
1.89514	
1.89972	
1.89972	
1.90582	
1.90735	
1.90735	
1.9043	
1.90582	
1.90277	
1.89972	
1.9043	
1.90125	
1.90125	
1.90735	
1.9104	
1.90887	
1.90887	
1.9104	
1.90582	
1.9043	
1.90735	
1.90125	
1.90735	
1.90887	
1.90735	
1.9043	
1.90277	
1.89209	
1.90277	
1.89667	
1.89667	
1.89667	
1.89209	
1.89056	
1.89209	
1.89209	
1.87531	
1.88599	
1.88446	
1.88904	
1.88446	
1.89667	
1.89972	
1.89209	
1.87836	
1.88141	
1.88293	
1.87378	
1.87988	
1.89056	
1.88141	
1.87836	
1.87988	
1.87836	
1.87225	
1.87378	
1.87378	
1.87225	
1.87378	
1.87225	
1.88446	
1.89514	
1.89972	
1.90277	
1.90277	
1.90125	
1.89514	
1.89056	
1.88446	
1.87378	
1.85547	
1.85852	
1.8631	
1.88293	
1.88904	
1.87073	
1.85547	
1.85089	
1.84784	
1.84784	
1.86005	
1.8631	
1.85547	
1.84937	
1.84021	
1.83716	
1.84021	
1.83258	
1.82343	
1.83868	
1.86462	
1.87988	
1.87836	
1.88599	
1.87988	
1.87378	
1.87378	
1.86615	
1.86157	
1.85547	
1.83105	
1.83411	
1.83258	
1.83411	
1.83411	
1.84631	
1.85394	
1.84326	
1.83411	
1.82953	
1.83258	
1.85394	
1.8631	
1.87225	
1.87683	
1.88293	
1.87683	
1.87073	
1.86768	
1.84631	
1.82953	
1.82037	
1.82343	
1.8158	
1.81122	
1.80664	
1.8158	
1.81885	
1.80817	
1.80817	
1.81274	
1.8158	
1.81427	
1.8158	
1.80817	
1.81427	
1.828	
1.82037	
1.81427	
1.81885	
1.82037	
1.8219	
1.82495	
1.82343	
1.82343	
1.82495	
1.83563	
1.83411	
1.83563	
1.83716	
1.83868	
1.83411	
1.83105	
1.82343	
1.8158	
1.81732	
1.80969	
1.82953	
1.84021	
1.83868	
1.82343	
1.83105	
1.8158	
1.83258	
1.83411	
1.84021	
1.83563	
1.83716	
1.83105	
1.83258	
1.83258	
1.828	
1.828	
1.83105	
1.82495	
1.83258	
1.82953	
1.82495	
1.82037	
1.81885	
1.83411	
1.82343	
1.828	
1.83563	
1.83411	
1.84326	
1.85394	
1.84326	
1.83716	
1.83411	
1.84021	
1.83411	
1.84021	
1.84174	
1.83716	
1.828	
1.83258	
1.83258	
1.83411	
1.828	
1.82953	
1.82495	
1.82495	
1.83258	
1.828	
1.82495	
1.8219	
1.82953	
1.82343	
1.828	
1.81732	
1.81885	
1.81885	
1.81885	
1.80817	
1.82343	
1.83258	
1.828	
1.81885	
1.80664	
1.80054	
1.78986	
1.79901	
1.81274	
1.81885	
1.8219	
1.8219	
1.82037	
1.83563	
1.84021	
1.83258	
1.828	
1.828	
1.82037	
1.82343	
1.8219	
1.81427	
1.81427	
1.81122	
1.81885	
1.81122	
1.80817	
1.80206	
1.80359	
1.80664	
1.82343	
1.82495	
1.828	
1.83868	
1.84479	
1.84174	
1.84021	
1.83868	
1.84021	
1.828	
1.83563	
1.83411	
1.83716	
1.83868	
1.8219	
1.81885	
1.82953	
1.82343	
1.82495	
1.82343	
1.83411	
1.82953	
1.828	
1.83105	
1.83411	
1.83105	
1.83105	
1.82953	
1.83563	
1.828	
1.83105	
1.82343	
1.83716	
1.83411	
1.84174	
1.83258	
1.84479	
1.84021	
1.83411	
1.83105	
1.83105	
1.82495	
1.82343	
1.8158	
1.83411	
1.83411	
1.828	
1.82037	
1.82343	
1.828	
1.84174	
1.84021	
1.84326	
1.84326	
1.83868	
1.82343	
1.83105	
1.83563	
1.83105	
1.82495	
1.83411	
1.83258	
1.83411	
1.828	
1.83105	
1.83105	
1.828	
1.82495	
1.83563	
1.83105	
1.82495	
1.828	
1.82495	
1.82953	
1.82495	
1.82037	
1.82343	
1.828	
1.83258	
1.83716	
1.83105	
1.82495	
1.81885	
1.82495	
1.83258	
1.82953	
1.82495	
1.828	
1.83105	
1.83258	
1.83868	
1.83411	
1.82953	
1.82495	
1.84021	
1.83258	
1.83868	
1.83716	
1.82495	
1.82953	
1.82495	
1.83105	
1.828	
1.82495	
1.83258	
1.828	
1.82953	
1.82495	
1.81885	
1.81732	
1.81732	
1.8219	
1.83105	
1.83105	
1.82495	
1.81274	
1.81427	
1.81885	
1.8158	
1.82343	
1.81885	
1.8158	
1.81122	
1.80664	
1.82037	
1.83105	
1.82343	
1.82343	
1.82495	
1.82953	
1.83411	
1.83105	
1.82037	
1.8219	
1.82343	
1.82343	
1.83258	
1.82953	
1.8219	
1.82343	
1.82343	
1.8219	
1.82037	
1.82495	
1.84174	
1.84479	
1.83105	
1.82037	
1.8219	
1.82037	
1.82343	
1.82037	
1.83563	
1.84021	
1.84174	
1.83105	
1.83868	
1.82953	
1.82495	
1.828	
1.828	
1.83105	
1.82343	
1.82495	
1.828	
1.8219	
1.8219	
1.81885	
1.828	
1.828	
1.81885	
1.81122	
1.81274	
1.8219	
1.828	
1.81732	
1.82037	
1.82495	
1.828	
1.82037	
1.8158	
1.81122	
1.8158	
1.81732	
1.81732	
1.81885	
1.81732	
1.8158	
1.81732	
1.8219	
1.82495	
1.81885	
1.8158	
1.8158	
1.81732	
1.81732	
1.82037	
1.8219	
1.81427	
1.80969	
1.80511	
1.81885	
1.81885	
1.82037	
1.8219	
1.81122	
1.81427	
1.82343	
1.8219	
1.8158	
1.81427	
1.81274	
1.8158	
1.82037	
1.81732	
1.8158	
1.80664	
1.80511	
1.80359	
1.79596	
1.80206	
1.80969	
1.80664	
1.81427	
1.81885	
1.8158	
1.81122	
1.82037	
1.81732	
1.81274	
1.80664	
1.80511	
1.80054	
1.79749	
1.80511	
1.80206	
1.80817	
1.80054	
1.80511	
1.81122	
1.81274	
1.80817	
1.80054	
1.80664	
1.80511	
1.80969	
1.81122	
1.80969	
1.80817	
1.80511	
1.80511	
1.80817	
1.80511	
1.79291	
1.79749	
1.80054	
1.79901	
1.80664	
1.80359	
1.79596	
1.80054	
1.80054	
1.80969	
1.80359	
1.80359	
1.79901	
1.79596	
1.78833	
1.80054	
1.79901	
1.80359	
1.80664	
1.80664	
1.80664	
1.80054	
1.79291	
1.79596	
1.80206	
1.80206	
1.79901	
1.78528	
1.7868	
1.80359	
1.78833	
1.79749	
1.79138	
1.79138	
1.79749	
1.79901	
1.80206	
1.80054	
1.79138	
1.79901	
1.80206	
1.80054	
1.79901	
1.80054	
1.79901	
1.79138	
1.7868	
1.7868	
1.79138	
1.78223	
1.79749	
1.79138	
1.78833	
1.78986	
1.79596	
1.79596	
1.78833	
1.79138	
1.79596	
1.80206	
1.79901	
1.7868	
1.77917	
1.78528	
1.78833	
1.7868	
1.78833	
1.78833	
1.78375	
1.78528	
1.7868	
1.78528	
1.78375	
1.78528	
1.78986	
1.79291	
1.78986	
1.7868	
1.7868	
1.7807	
1.7746	
1.77917	
1.77765	
1.77917	
1.78375	
1.7868	
1.7868	
1.78986	
1.79138	
1.77612	
1.77155	
1.77002	
1.7746	
1.77765	
1.7746	
1.77765	
1.7746	
1.77002	
1.76544	
1.76697	
1.76697	
1.77917	
1.7807	
1.7807	
1.78833	
1.78986	
1.76239	
1.77002	
1.76849	
1.77307	
1.77765	
1.7746	
1.77155	
1.7746	
1.77307	
1.77155	
1.77002	
1.77155	
1.76849	
1.77002	
1.76849	
1.76239	
1.76849	
1.77002	
1.77307	
1.77155	
1.76697	
1.7746	
1.77307	
1.7746	
1.76849	
1.77155	
1.77155	
1.77155	
1.76239	
1.75476	
1.76697	
1.77155	
1.7746	
1.77002	
1.77307	
1.77002	
1.77002	
1.77765	
1.76849	
1.76697	
1.76086	
1.75781	
1.75171	
1.75781	
1.77002	
1.77155	
1.75781	
1.75781	
1.76086	
1.75934	
1.75934	
1.76544	
1.76239	
1.75934	
1.75629	
1.75629	
1.75018	
1.75629	
1.75476	
1.75629	
1.75781	
1.75629	
1.75476	
1.75018	
1.75171	
1.75323	
1.76239	
1.76239	
1.75171	
1.75476	
1.75781	
1.75934	
1.75934	
1.75476	
1.75629	
1.76239	
1.75629	
1.77002	
1.76849	
1.76239	
1.75629	
1.75934	
1.75629	
1.75018	
1.75018	
1.75781	
1.76086	
1.76239	
1.76239	
1.76239	
1.76239	
1.75934	
1.75934	
1.76849	
1.75629	
1.75934	
1.75781	
1.75781	
1.75629	
1.75476	
1.75476	
1.75781	
1.76544	
1.75629	
1.74866	
1.75018	
1.74866	
1.75323	
1.75171	
1.75018	
1.75629	
1.75476	
1.74866	
1.75323	
1.74866	
1.75171	
1.75018	
1.75171	
1.74713	
1.75171	
1.75781	
1.75934	
1.75476	
1.75476	
1.75476	
1.75323	
1.75323	
1.75323	
1.75781	
1.75781	
1.75629	
1.75781	
1.75476	
1.75171	
1.75018	
1.75476	
1.75476	
1.75476	
1.75781	
1.75476	
1.75323	
1.75323	
1.75934	
1.75629	
1.75476	
1.75323	
1.74561	
1.75171	
1.74408	
1.74713	
1.75018	
1.75323	
1.75018	
1.75018	
1.75323	
1.75323	
1.74866	
1.75629	
1.76086	
1.76086	
1.76086	
1.75781	
1.76086	
1.75476	
1.75323	
1.75171	
1.75171	
1.74866	
1.75171	
1.75476	
1.75323	
1.75934	
1.76086	
1.76086	
1.74713	
1.74408	
1.75934	
1.75476	
1.75629	
1.76239	
1.75781	
1.75323	
1.75018	
