2.07672	
2.07825	
2.07977	
2.07062	
2.0752	
2.07672	
2.07672	
2.0752	
2.0752	
2.07214	
2.06299	
2.06451	
2.06604	
2.06451	
2.06909	
2.0813	
2.08893	
2.10419	
2.11182	
2.09808	
2.09045	
2.0874	
2.08282	
2.07825	
2.08435	
2.09808	
2.09961	
2.10724	
2.09961	
2.09351	
2.0874	
2.10266	
2.11792	
2.11792	
2.11945	
2.10724	
2.09351	
2.09656	
2.10876	
2.11945	
2.13623	
2.15759	
2.15149	
2.12708	
2.09656	
2.07214	
2.04773	
2.01569	
2.02637	
2.01721	
2.00653	
2.01111	
2.01569	
2.03094	
2.04468	
2.05383	
2.06604	
2.07367	
2.07825	
2.07672	
2.08282	
2.07977	
2.0874	
2.09045	
2.08588	
2.0874	
2.0813	
2.08588	
2.09656	
2.09045	
2.0813	
2.0752	
2.0752	
2.0813	
2.08435	
2.09045	
2.08893	
2.08588	
2.08893	
2.0813	
2.07367	
2.06757	
2.07062	
2.06757	
2.06909	
2.06909	
2.06604	
2.06451	
2.07062	
2.07825	
2.0813	
2.0874	
2.09351	
2.09045	
2.08435	
2.09045	
2.08435	
2.08435	
2.07825	
2.07214	
2.06757	
2.06451	
2.06909	
2.05994	
2.06451	
2.07367	
2.08282	
2.09045	
2.09656	
2.09351	
2.08435	
2.07977	
2.08435	
2.0874	
2.09045	
2.09503	
2.08435	
2.0752	
2.07367	
2.07672	
2.07977	
2.0752	
2.0752	
2.0874	
2.09808	
2.11029	
2.11029	
2.10571	
2.09808	
2.09808	
2.10266	
2.09045	
2.08588	
2.0752	
2.08588	
2.11182	
2.13013	
2.11945	
2.10266	
2.08435	
2.08588	
2.0813	
2.07672	
2.06299	
2.05994	
2.06757	
2.05994	
2.05231	
2.0462	
2.06909	
2.0752	
2.10724	
2.10571	
2.10266	
2.10724	
2.10114	
2.09961	
2.09808	
2.09045	
2.09961	
2.10419	
2.08893	
2.08588	
2.08282	
2.07214	
2.06909	
2.06451	
2.05994	
2.05231	
2.05383	
2.04468	
2.0462	
2.04773	
2.05383	
2.05536	
2.09656	
2.11639	
2.13318	
2.13928	
2.11945	
2.08893	
2.05841	
2.03094	
2.01416	
2.00958	
2.00958	
2.03094	
2.04468	
2.04926	
2.06451	
2.07367	
2.0874	
2.09656	
2.09503	
2.08588	
2.09808	
2.10571	
2.11029	
2.11945	
2.11639	
2.11334	
2.10571	
2.10114	
2.09656	
2.09351	
2.09503	
2.09503	
2.09351	
2.08588	
2.07214	
2.05536	
2.05688	
2.05536	
2.06299	
2.06757	
2.07062	
2.06909	
2.0752	
2.0813	
2.07977	
2.08588	
2.0813	
2.0813	
2.0752	
2.07977	
2.07825	
2.07825	
2.0813	
2.07672	
2.07367	
2.07672	
2.09961	
2.10419	
2.09961	
2.09045	
2.07825	
2.06757	
2.06451	
2.06757	
2.07214	
2.08282	
2.08435	
2.08893	
2.09045	
2.11487	
2.12555	
2.11639	
2.09656	
2.07672	
2.04926	
2.04315	
2.0401	
2.0462	
2.04163	
2.04468	
2.04315	
2.04468	
2.06757	
2.06299	
2.06299	
2.09656	
2.12097	
2.13013	
2.11029	
2.09045	
2.07672	
2.07214	
2.05383	
2.0401	
2.03094	
2.03857	
2.034	
2.04163	
2.05383	
2.05688	
2.05841	
2.05841	
2.05536	
2.06451	
2.07214	
2.07367	
2.06757	
2.05994	
2.05841	
2.06451	
2.06909	
2.06757	
2.07672	
2.0752	
2.07367	
2.06757	
2.06909	
2.06451	
2.05383	
2.0462	
2.04773	
2.05078	
2.0462	
2.04468	
2.04926	
2.05841	
2.06451	
2.06909	
2.06299	
2.06451	
2.06604	
2.06909	
2.07062	
2.07214	
2.07977	
2.08588	
2.09351	
2.09503	
2.09656	
2.09808	
2.09503	
2.11792	
2.1225	
2.11639	
2.10419	
2.08588	
2.07214	
2.06299	
2.04773	
2.03552	
2.03094	
2.02789	
2.02789	
2.03247	
2.0401	
2.05078	
2.07062	
2.07672	
2.08588	
2.08588	
2.08588	
2.09503	
2.09045	
2.08435	
2.0813	
2.07672	
2.0752	
2.0813	
2.09961	
2.09045	
2.07825	
2.06299	
2.06299	
2.06604	
2.07367	
2.0752	
2.07672	
2.07062	
2.05688	
2.05994	
2.05078	
2.04773	
2.05078	
2.05536	
2.05536	
2.06757	
2.07825	
2.07825	
2.07977	
2.06909	
2.05994	
2.05231	
2.06299	
2.0874	
2.10419	
2.09656	
2.09503	
2.09656	
2.09351	
2.09351	
2.09961	
2.11487	
2.12097	
2.11639	
2.13776	
2.11945	
2.09808	
2.08282	
2.06909	
2.05841	
2.04773	
2.04315	
2.03247	
2.02026	
2.01111	
2.00806	
2.02789	
2.03247	
2.034	
2.04468	
2.05536	
2.06604	
2.06757	
2.0752	
2.0813	
2.0752	
2.07214	
2.07214	
2.07062	
2.06757	
2.06299	
2.06909	
2.07214	
2.09045	
2.09808	
2.09351	
2.08435	
2.07214	
2.06757	
2.05994	
2.05078	
2.0401	
2.034	
2.03247	
2.03552	
2.03552	
2.0462	
2.06451	
2.07214	
2.07214	
2.07825	
2.07367	
2.07367	
2.06604	
2.05994	
2.05383	
2.04773	
2.0462	
2.07214	
2.08435	
2.0813	
2.07825	
2.07367	
2.06757	
2.06451	
2.05688	
2.05231	
2.05536	
2.05231	
2.05078	
2.05231	
2.05383	
2.05536	
2.06604	
2.08435	
2.08893	
2.10266	
2.11334	
2.10876	
2.0874	
2.07367	
2.05688	
2.03552	
2.034	
2.02484	
2.03552	
2.04468	
2.05383	
2.06757	
2.10114	
2.10114	
2.08893	
2.09351	
2.09808	
2.09045	
2.07062	
2.05841	
2.04315	
2.02484	
2.01263	
2.00958	
2.01874	
2.03094	
2.05231	
2.06451	
2.06604	
2.05994	
2.07367	
2.07214	
2.07062	
2.07062	
2.07825	
2.07977	
2.07977	
2.07977	
2.08282	
2.08435	
2.08282	
2.07672	
2.09961	
2.10876	
2.09961	
2.0874	
2.08435	
2.07825	
2.0752	
2.07977	
2.0813	
2.07214	
2.06604	
2.05688	
2.05688	
2.05078	
2.06604	
2.05841	
2.05383	
2.04773	
2.04773	
2.04926	
2.04315	
2.04315	
2.04315	
2.04163	
2.03705	
2.04315	
2.04773	
2.07825	
2.07672	
2.0752	
2.07214	
2.07367	
2.07214	
2.07062	
2.05994	
2.06299	
2.05536	
2.0462	
2.04773	
2.04926	
2.05994	
2.06757	
2.07214	
2.06757	
2.07062	
2.07062	
2.0813	
2.07214	
2.07367	
2.06757	
2.07214	
2.07367	
2.08282	
2.07977	
2.0813	
2.07977	
2.07977	
2.08435	
2.07977	
2.07214	
2.06909	
2.06909	
2.07825	
2.08588	
2.08893	
2.09961	
2.11792	
2.13165	
2.15759	
2.14844	
2.13013	
2.10571	
2.08588	
2.08435	
2.07825	
2.07062	
2.05231	
2.04468	
2.034	
2.01721	
2.01569	
2.02484	
2.02179	
2.01874	
2.02179	
2.03552	
2.05231	
2.06909	
2.0752	
2.06451	
2.05688	
2.05841	
2.05383	
2.06299	
2.06757	
2.07977	
2.09503	
2.10114	
2.09656	
2.0813	
2.06909	
2.07062	
2.07672	
2.07825	
2.07214	
2.06451	
2.05841	
2.05383	
2.05383	
2.04773	
2.0462	
2.04468	
2.05078	
2.05078	
2.06299	
2.06604	
2.06604	
2.07825	
2.08588	
2.09961	
2.10114	
2.11029	
2.11639	
2.13013	
2.11792	
2.11334	
2.10419	
2.09045	
2.08893	
2.07214	
2.05231	
2.03705	
2.02484	
2.02179	
2.02179	
2.02484	
2.03094	
2.03857	
2.05231	
2.05688	
2.06604	
2.06604	
2.07214	
2.06909	
2.05994	
2.06909	
2.07214	
2.0752	
2.09656	
2.12097	
2.13013	
2.1286	
2.11487	
2.07977	
2.04926	
2.0462	
2.04315	
2.04315	
2.0401	
2.03247	
2.03094	
2.034	
2.05078	
2.05231	
2.05383	
2.06451	
2.0752	
2.07367	
2.07672	
2.06909	
2.06909	
2.06757	
2.05994	
2.05841	
2.05536	
2.05841	
2.06909	
2.09961	
2.10114	
2.10876	
2.11029	
2.10419	
2.10571	
2.09351	
2.08282	
2.07825	
2.0752	
2.05383	
2.04163	
2.03247	
2.02484	
2.02484	
2.03094	
2.02637	
2.02789	
2.03094	
2.04315	
2.05536	
2.06451	
2.05231	
2.05231	
2.05994	
2.0752	
2.07825	
2.07825	
2.0752	
2.07214	
2.06909	
2.06604	
2.05994	
2.05841	
2.05383	
2.07367	
2.07062	
2.06604	
2.06299	
2.05994	
2.06909	
2.09045	
2.10571	
2.11182	
2.13165	
2.1225	
2.11029	
2.09808	
2.07977	
2.04468	
2.02179	
2.00958	
2.00806	
2.00348	
2.00653	
2.005	
2.00806	
2.01416	
2.02179	
2.02789	
2.05383	
2.06757	
2.0813	
2.09351	
2.09656	
2.08893	
2.07367	
2.07367	
2.06909	
2.05994	
2.05078	
2.04773	
2.03705	
2.03247	
2.02789	
2.04468	
2.06299	
2.05841	
2.04926	
2.0401	
2.0401	
2.03705	
2.04163	
2.03705	
2.03705	
2.0462	
2.04926	
2.0401	
2.034	
2.03857	
2.03705	
2.04163	
2.05536	
2.0874	
2.09351	
2.11792	
2.11029	
2.08893	
2.08435	
2.07214	
2.05994	
2.05994	
2.04926	
2.0462	
2.03705	
2.02484	
2.02179	
2.0462	
2.07214	
2.08588	
2.07977	
2.06757	
2.05383	
2.04773	
2.01263	
1.99127	
1.97449	
1.96991	
1.97296	
1.97906	
1.99432	
2.01416	
2.04163	
2.05078	
2.06451	
2.06604	
2.07062	
2.05994	
2.06299	
2.05841	
2.07367	
2.07214	
2.07672	
2.08282	
2.07367	
2.06757	
2.05078	
2.04773	
2.03857	
2.03705	
2.04468	
2.04773	
2.04468	
2.03705	
2.034	
2.03247	
2.034	
2.03705	
2.04468	
2.0401	
2.04315	
2.0401	
2.05536	
2.06757	
2.06604	
2.0874	
2.09656	
2.09503	
2.09503	
2.0813	
2.06299	
2.04926	
2.034	
2.02789	
2.01416	
2.00043	
2.00043	
2.00653	
2.01569	
2.02026	
2.03094	
2.03247	
2.04163	
2.05688	
2.05841	
2.05994	
2.05841	
2.05231	
2.05231	
2.04468	
2.04163	
2.04163	
2.03705	
2.02789	
2.02484	
2.03094	
2.0462	
2.06604	
2.07367	
2.08282	
2.08435	
2.09045	
2.10266	
2.09808	
2.0874	
2.08282	
2.06909	
2.05688	
2.05231	
2.04315	
2.04163	
2.02484	
2.01721	
2.00958	
2.02789	
2.05841	
2.04926	
2.04163	
2.03705	
2.03094	
2.02179	
2.01874	
2.02179	
2.02332	
2.02332	
2.02026	
2.02026	
2.01874	
2.02026	
2.03247	
2.03705	
2.04163	
2.08282	
2.09351	
2.0874	
2.07214	
2.06604	
2.05688	
2.04926	
2.03705	
2.034	
2.03094	
2.02789	
2.03247	
2.034	
2.03552	
2.04163	
2.04163	
2.04468	
2.0462	
2.0401	
2.0401	
2.04163	
2.0401	
2.03552	
2.034	
2.03094	
2.02637	
2.03247	
2.04926	
2.06299	
2.07367	
2.07977	
2.0813	
2.07672	
2.06299	
2.05688	
2.05688	
2.05536	
2.05536	
2.05383	
2.04926	
2.0401	
2.034	
2.03094	
2.03705	
2.03857	
2.03857	
2.03552	
2.0401	
2.04163	
2.04773	
2.06604	
2.06299	
2.05383	
2.05078	
2.05078	
2.05231	
2.05231	
2.04468	
2.04468	
2.04163	
2.04315	
2.0401	
2.03247	
2.04468	
2.07214	
2.07977	
2.07672	
2.06757	
2.06604	
2.06451	
2.05841	
2.05231	
2.0462	
2.02637	
2.02484	
2.01569	
2.01569	
2.01721	
2.034	
2.05536	
2.06909	
2.06604	
2.06299	
2.07672	
2.09351	
2.09961	
2.10419	
2.10419	
2.09503	
2.08588	
2.09045	
2.0752	
2.08588	
2.11639	
2.10724	
2.10724	
2.09656	
2.0752	
2.06299	
2.05078	
2.03857	
2.03705	
2.03094	
2.02484	
2.02179	
2.01721	
2.01569	
2.01721	
2.02332	
2.02179	
2.02484	
2.02637	
2.034	
2.04926	
2.04926	
2.0462	
2.05231	
2.05841	
2.06299	
2.06299	
2.05383	
2.05994	
2.05231	
2.04773	
2.05536	
2.05383	
2.05078	
2.04926	
2.05231	
2.05688	
2.05536	
2.06299	
2.06757	
2.07825	
2.10876	
2.10114	
2.09503	
2.08282	
2.06604	
2.06757	
2.06299	
2.06451	
2.06299	
2.05688	
2.04163	
2.04163	
2.04773	
2.03857	
2.05536	
2.05688	
2.05231	
2.05383	
2.05994	
2.08588	
2.08282	
2.0752	
2.07367	
2.06299	
2.05994	
2.04926	
2.04163	
2.034	
2.02332	
2.02637	
2.0401	
2.05383	
2.05536	
2.05688	
2.05841	
2.05688	
2.08282	
2.08893	
2.08893	
2.09656	
2.08588	
2.07672	
2.06757	
2.05841	
2.05231	
2.04315	
2.04468	
2.04163	
2.03552	
2.02789	
2.04163	
2.05688	
2.06299	
2.06604	
2.06757	
2.07062	
2.07672	
2.08282	
2.09961	
2.10876	
2.11182	
2.10724	
2.08435	
2.06604	
2.05383	
2.0462	
2.04773	
2.04926	
2.05536	
2.06451	
2.07062	
2.07214	
2.05841	
2.0401	
2.03705	
2.04468	
2.04773	
2.04773	
2.05383	
2.05994	
2.05078	
2.04468	
2.05231	
2.05383	
2.06909	
2.07214	
2.06604	
2.06604	
2.06909	
2.06909	
2.05994	
2.05688	
2.0462	
2.03705	
2.03705	
2.03857	
2.05536	
2.05536	
2.05841	
2.05688	
2.05688	
2.06299	
2.05994	
2.06299	
2.06757	
2.06604	
2.06604	
2.05536	
2.05688	
2.06299	
2.05994	
2.0874	
2.11029	
2.11945	
2.11487	
2.11029	
2.10114	
2.08893	
2.07977	
2.07672	
2.06451	
2.04773	
2.02789	
2.02332	
2.01416	
2.01721	
2.03247	
2.03857	
2.0462	
2.04926	
2.05536	
2.07062	
2.07672	
2.06757	
2.05994	
2.06604	
2.0752	
2.09045	
2.0813	
2.09045	
2.0874	
2.07977	
2.0752	
2.05994	
2.05841	
2.04773	
2.03857	
2.03247	
2.01721	
2.02332	
2.03705	
2.04468	
2.05231	
2.05688	
2.06757	
2.07062	
2.07062	
2.07062	
2.06757	
2.07367	
2.06757	
2.06604	
2.0752	
2.08588	
2.08435	
2.07672	
2.0752	
2.06909	
2.06604	
2.06451	
2.07062	
2.06909	
2.06604	
2.05994	
2.05536	
2.05383	
2.06451	
2.07214	
2.06451	
2.05688	
2.07214	
2.08282	
2.08893	
2.09045	
2.0813	
2.07977	
2.07214	
2.06604	
2.07214	
2.07367	
2.07672	
2.07214	
2.06604	
2.05688	
2.07977	
2.07977	
2.07367	
2.06604	
2.06451	
2.05536	
2.05383	
2.0462	
2.04163	
2.05994	
2.05231	
2.04926	
2.05231	
2.04773	
2.05688	
2.05841	
2.05231	
2.04773	
2.03705	
2.03705	
2.04163	
2.0401	
2.03857	
2.04468	
2.05536	
2.07214	
2.0874	
2.09656	
2.09503	
2.10266	
2.11334	
2.12555	
2.11945	
2.11334	
2.11182	
2.09961	
2.0874	
2.0752	
2.06299	
2.04315	
2.03705	
2.02637	
2.02026	
2.00806	
1.99585	
2.005	
2.01263	
2.02179	
2.04468	
2.04926	
2.04773	
2.07062	
2.09503	
2.09961	
2.10571	
2.10419	
2.10114	
2.08435	
2.07367	
2.06604	
2.0462	
2.03552	
2.034	
2.03705	
2.03705	
2.04468	
2.05536	
2.05536	
2.06757	
2.07062	
2.07977	
2.0813	
2.08282	
2.08588	
2.07977	
2.0752	
2.0752	
2.07977	
2.07977	
2.09351	
2.10571	
2.09351	
2.08282	
2.07214	
2.05841	
2.05078	
2.05078	
2.05078	
2.06299	
2.0752	
2.0813	
2.07977	
2.0752	
2.09656	
2.11945	
2.11945	
2.11945	
2.1286	
2.11334	
2.10266	
2.09351	
2.07672	
2.04468	
2.01569	
2.00043	
1.9928	
2.00653	
2.01569	
2.03552	
2.04926	
2.05536	
2.06909	
2.05688	
2.06909	
2.07214	
2.05994	
2.04926	
2.05688	
2.04468	
2.0462	
2.05383	
2.05841	
2.06757	
2.06757	
2.07214	
2.07367	
2.07062	
2.05994	
2.05841	
2.06451	
2.07062	
2.06757	
2.06299	
2.05383	
2.0401	
2.02637	
2.03094	
2.02332	
2.02332	
2.02484	
2.02637	
2.04773	
2.06451	
2.07214	
2.0813	
2.08282	
2.08282	
2.0813	
2.07977	
2.0752	
2.07367	
2.05536	
2.05078	
2.04468	
2.05078	
2.04773	
2.0401	
2.0401	
2.04468	
2.0462	
2.04926	
2.04926	
2.05841	
2.0752	
2.08588	
2.09503	
2.0874	
2.07977	
2.06299	
2.05231	
2.0462	
2.03705	
2.02637	
2.05078	
2.07062	
2.09351	
2.10114	
2.10876	
2.11029	
2.0874	
2.06909	
2.05841	
2.04773	
2.04468	
2.0401	
2.02789	
2.02484	
2.02637	
2.03705	
2.06604	
2.08588	
2.07672	
2.06451	
2.05383	
2.06299	
2.06451	
2.05536	
2.05536	
2.05841	
2.05841	
2.05383	
2.05841	
2.0752	
2.0752	
2.06604	
2.05536	
2.05383	
2.05383	
2.05078	
2.04926	
2.04315	
2.05994	
2.06757	
2.05536	
2.05383	
2.04315	
2.03247	
2.03552	
2.02637	
2.03705	
2.05231	
2.06299	
2.06604	
2.06757	
2.07062	
2.06909	
2.06604	
2.05688	
2.06604	
2.06299	
2.06451	
2.05536	
2.05536	
2.05078	
2.05383	
2.05536	
2.05383	
2.05078	
2.04163	
2.03552	
2.03247	
2.03094	
2.04163	
2.04773	
2.06909	
2.08435	
2.1225	
2.14844	
2.14386	
2.11945	
2.0813	
2.05078	
2.02332	
2.01263	
2.005	
2.00043	
1.99585	
1.9989	
2.00348	
2.01874	
2.02332	
2.0401	
2.05536	
2.05383	
2.05841	
2.05688	
2.06909	
2.05841	
2.04773	
2.04926	
2.04773	
2.05231	
2.04926	
2.05841	
2.06757	
2.06909	
2.07214	
2.06604	
2.06757	
2.06451	
2.06451	
2.05841	
2.05841	
2.07977	
2.08282	
2.07214	
2.06451	
2.07214	
2.0752	
2.0752	
2.07367	
2.06909	
2.05994	
2.05688	
2.04773	
2.04468	
2.0401	
2.04468	
2.05231	
2.0462	
2.0462	
2.05078	
2.05078	
2.04468	
2.05688	
2.05536	
2.05841	
2.06757	
2.07062	
2.06757	
2.06451	
2.05994	
2.05994	
2.06451	
2.0813	
2.09045	
2.07977	
2.07367	
2.06299	
2.05688	
2.05536	
2.05841	
2.06451	
2.07062	
2.07367	
2.07367	
2.0813	
2.07672	
2.06909	
2.06909	
2.07367	
2.06604	
2.05383	
2.04468	
2.02637	
2.01416	
2.01874	
2.02026	
2.01416	
2.02484	
2.03857	
2.04773	
2.05841	
2.05994	
2.06604	
2.06451	
2.05994	
2.05231	
2.05078	
2.0462	
2.04468	
2.05231	
2.05536	
2.05688	
2.05841	
2.07214	
2.06909	
2.05688	
2.05841	
2.06604	
2.06604	
2.06604	
2.07214	
2.06757	
2.06299	
2.05994	
2.07367	
2.11029	
2.1286	
2.13623	
2.12555	
2.10876	
2.09045	
2.06299	
2.03552	
2.01721	
2.00195	
1.98212	
1.99585	
2.00043	
2.00195	
2.01263	
2.01721	
2.03247	
2.0462	
2.04926	
2.06909	
2.0752	
2.0874	
2.09045	
2.11334	
2.11029	
2.09808	
2.08282	
2.07214	
2.05994	
2.05383	
2.06451	
2.06604	
2.05994	
2.04468	
2.03552	
2.03247	
2.0401	
2.04315	
2.0462	
2.06604	
2.08588	
2.09961	
2.08588	
2.06451	
2.05231	
2.0401	
2.03247	
2.01569	
2.00958	
2.01111	
2.01569	
2.02026	
2.01874	
2.04315	
2.05994	
2.07214	
2.07672	
2.07825	
2.07977	
2.08588	
2.08282	
2.06451	
2.04926	
2.03705	
2.034	
2.04315	
2.05536	
2.05841	
2.05536	
2.04468	
2.0462	
2.05994	
2.05688	
2.06299	
2.06451	
2.07214	
2.07062	
2.06451	
2.05688	
2.04926	
2.05383	
2.05994	
2.06604	
2.06451	
2.06757	
2.06604	
2.05688	
2.05841	
2.06604	
2.05994	
2.06909	
2.06604	
2.05078	
2.0401	
2.02789	
2.01721	
2.01263	
2.01416	
2.02332	
2.03857	
2.05994	
2.07367	
2.07825	
2.07672	
2.07367	
2.07214	
2.0752	
2.07367	
2.06909	
2.06451	
2.06451	
2.07672	
2.07825	
2.0813	
2.08893	
2.0752	
2.05841	
2.0462	
2.02789	
2.02026	
2.01416	
2.00958	
2.01111	
2.01416	
2.02637	
2.034	
2.03705	
2.04468	
2.05536	
2.05841	
2.05536	
2.06451	
2.07977	
2.10114	
2.10114	
2.09961	
2.12097	
2.11945	
2.10266	
2.0813	
2.06757	
2.04926	
2.04163	
2.03705	
2.03247	
2.02637	
2.01721	
2.02484	
2.02484	
2.02789	
2.03552	
2.0401	
2.0462	
2.04315	
2.04926	
2.05078	
2.03857	
2.03552	
2.034	
2.03857	
2.0462	
2.04468	
2.04773	
2.04926	
2.05231	
2.05536	
2.04468	
2.04468	
2.0462	
2.05078	
2.05231	
2.05078	
2.04926	
2.0462	
2.0462	
2.04773	
2.04926	
2.04926	
2.05078	
2.05078	
2.05536	
2.05536	
2.04926	
2.05841	
2.0813	
2.08893	
2.0874	
2.0813	
2.06299	
2.05841	
2.0462	
2.04926	
2.06604	
2.05994	
2.06451	
2.05383	
2.05078	
2.05383	
2.04468	
2.04315	
2.04163	
2.03247	
2.02332	
2.03857	
2.034	
2.02179	
2.02332	
2.04163	
2.05994	
2.06604	
2.06757	
2.0752	
2.06604	
2.05536	
2.0462	
2.03247	
2.01569	
2.01263	
2.01263	
2.02484	
2.03247	
2.03094	
2.03247	
2.0401	
2.04468	
2.05383	
2.05994	
2.06299	
2.06299	
2.05231	
2.04468	
2.04163	
2.0401	
2.04163	
2.03705	
2.03857	
2.0401	
2.05231	
2.06604	
2.07062	
2.0813	
2.0813	
2.06909	
2.06299	
2.05688	
2.0462	
2.03705	
2.02789	
2.02789	
2.02484	
2.03094	
2.04163	
2.04315	
2.04468	
2.05841	
2.07062	
2.0752	
2.07977	
2.07062	
2.06604	
2.0874	
2.08435	
2.07062	
2.04926	
2.03705	
2.03247	
2.034	
2.03247	
2.03552	
2.03705	
2.03247	
2.03094	
2.02179	
2.01569	
2.02637	
2.03552	
2.04315	
2.0401	
2.05078	
2.04163	
2.03094	
2.03094	
2.03094	
2.034	
2.03857	
2.0401	
2.0462	
2.04773	
2.05078	
2.05994	
2.07977	
2.10724	
2.11792	
2.11029	
2.09351	
2.07977	
2.05231	
2.03094	
2.02026	
2.02026	
2.02637	
2.02637	
2.01874	
2.01874	
2.03552	
2.04163	
2.04773	
2.07672	
2.09045	
2.09045	
2.08435	
2.07367	
2.06604	
2.05688	
2.05078	
2.04468	
2.03857	
2.03552	
2.03705	
2.03552	
2.03247	
2.04468	
2.05231	
2.05841	
2.05994	
2.05994	
2.06451	
2.06909	
2.07367	
2.0874	
2.09351	
2.10266	
2.10266	
2.11182	
2.11182	
2.10876	
2.10419	
2.09351	
2.0813	
2.06757	
2.05383	
2.04315	
2.034	
2.0401	
2.0401	
2.03857	
2.034	
2.034	
2.03705	
2.03857	
2.03247	
2.03094	
2.03705	
2.04773	
2.05231	
2.05536	
2.05994	
2.06757	
2.06451	
2.06909	
2.06757	
2.06604	
2.06451	
2.06604	
2.06299	
2.05994	
2.05688	
2.05688	
2.05994	
2.06299	
2.06604	
2.06604	
2.05994	
2.05994	
2.06451	
2.06451	
2.05994	
2.05536	
2.06299	
2.05841	
2.05383	
2.05231	
2.05841	
2.05994	
2.05994	
2.06604	
2.05994	
2.05231	
2.04926	
2.06299	
2.0752	
2.07825	
2.07977	
2.09045	
2.08435	
2.06604	
2.04926	
2.0401	
2.03247	
2.02332	
2.02332	
2.02026	
2.02789	
2.05841	
2.07977	
2.08435	
2.0874	
2.09503	
2.08588	
2.07214	
2.06757	
2.05688	
2.05688	
2.05688	
2.0401	
2.03094	
2.02332	
2.02179	
2.034	
2.0401	
2.04468	
2.05536	
2.06604	
2.06757	
2.07825	
2.07367	
2.07672	
2.0752	
2.06757	
2.05994	
2.05231	
2.04773	
2.0462	
2.05078	
2.0462	
2.04468	
2.04163	
2.04773	
2.05383	
2.05078	
2.0462	
2.05078	
2.05231	
2.05231	
2.0462	
2.04926	
2.05536	
2.06299	
2.07214	
2.07214	
2.06451	
2.06451	
2.06299	
2.05994	
2.05536	
2.05841	
2.05841	
2.05536	
2.06299	
2.0752	
2.07977	
2.12555	
2.14996	
2.15454	
2.14539	
2.13776	
2.13013	
2.10876	
2.07977	
2.0462	
2.02179	
2.02179	
2.00348	
1.98975	
1.98059	
1.98669	
2.00348	
2.03552	
2.04468	
2.04163	
2.03552	
2.04468	
2.04315	
2.03857	
2.03247	
2.03094	
2.03705	
2.04926	
2.05994	
2.06299	
2.06299	
2.06299	
2.06757	
2.06909	
2.06451	
2.06451	
2.07062	
2.06909	
2.06909	
2.06909	
2.06909	
2.06604	
2.06909	
2.07672	
2.0813	
2.07977	
2.07062	
2.06909	
2.06757	
2.05994	
2.05078	
2.04163	
2.03857	
2.03705	
2.03857	
2.07367	
2.08435	
2.07825	
2.06909	
2.05383	
2.04468	
2.03552	
2.03552	
2.03857	
2.04163	
2.05841	
2.07214	
2.06604	
2.06299	
2.06299	
2.05383	
2.04926	
2.06299	
2.06604	
2.05078	
2.03857	
2.02789	
2.02484	
2.02789	
2.05078	
2.06299	
2.05841	
2.05994	
2.06299	
2.07062	
2.06604	
2.06299	
2.05383	
2.04773	
2.03705	
2.03094	
2.02484	
2.02332	
2.03094	
2.0462	
2.05994	
2.06604	
2.06909	
2.0874	
2.09656	
2.08893	
2.07977	
2.06604	
2.04926	
2.0401	
2.03552	
2.03857	
2.03094	
2.02637	
2.03857	
2.05231	
2.05383	
2.06909	
2.07214	
2.07367	
2.07062	
2.06909	
2.05688	
2.05231	
2.04163	
2.0401	
2.0401	
2.03857	
2.04163	
2.04315	
2.03857	
2.034	
2.0401	
2.04773	
2.05231	
2.05994	
2.05841	
2.06604	
2.06909	
2.06451	
2.06451	
2.05688	
2.05536	
2.05536	
2.05231	
2.05383	
2.04926	
2.03857	
2.034	
2.03094	
2.04315	
2.04926	
2.05688	
2.0813	
2.09808	
2.11029	
2.11182	
2.11334	
2.10114	
2.08588	
2.06299	
2.04468	
2.03552	
2.02789	
2.02484	
2.01721	
2.03552	
2.04926	
2.0462	
2.07062	
2.06451	
2.05383	
2.04468	
2.04315	
2.04315	
2.02637	
2.01569	
2.01263	
2.00806	
2.00348	
2.01416	
2.03247	
2.03705	
2.06909	
2.0813	
2.07825	
2.0752	
2.07367	
2.08588	
2.09045	
2.07825	
2.06604	
2.05383	
2.0462	
2.03705	
2.02484	
2.01874	
2.01721	
2.01569	
2.01569	
2.01874	
2.02026	
2.02332	
2.03857	
2.04773	
2.05536	
2.05841	
2.06604	
2.06757	
2.07062	
2.06604	
2.06604	
2.07672	
2.07672	
2.07214	
2.07062	
2.06299	
2.06604	
2.06451	
2.07977	
2.0813	
2.0874	
2.0813	
2.0752	
2.06909	
2.06299	
2.07367	
2.08282	
2.0813	
2.0813	
2.08282	
2.07214	
2.05841	
2.04926	
2.04468	
2.03094	
2.03552	
2.03857	
2.034	
2.02332	
2.02179	
2.00958	
2.01111	
2.02026	
2.05231	
2.10876	
2.11945	
2.11792	
2.11334	
2.10114	
2.07825	
2.06451	
2.0462	
2.02637	
2.00958	
2.00958	
2.01263	
2.01569	
2.02332	
2.04163	
2.05536	
2.05688	
2.06451	
2.05841	
2.06451	
2.07062	
2.07672	
2.07214	
2.09656	
2.08435	
2.0752	
2.07062	
2.05383	
2.05536	
2.04926	
2.04773	
2.05383	
2.05841	
2.05994	
2.06909	
2.07062	
2.06299	
2.05383	
2.05231	
2.04163	
2.04315	
2.04163	
2.03247	
2.02179	
2.01721	
2.01874	
2.02026	
2.03247	
2.04468	
2.05231	
2.05231	
2.05231	
2.05688	
2.05231	
2.05231	
2.05231	
2.05536	
2.05383	
2.05994	
2.06451	
2.05994	
2.07672	
2.07672	
2.0752	
2.06909	
2.05994	
2.05078	
2.05841	
2.05688	
2.05078	
2.04773	
2.04773	
2.0401	
2.04773	
2.0462	
2.05078	
2.0462	
2.04315	
2.0401	
2.04163	
2.04468	
2.05383	
2.06299	
2.07062	
2.0874	
2.10266	
2.09961	
2.09656	
2.09045	
2.09503	
2.09808	
2.10114	
2.08282	
2.07062	
2.06909	
2.07977	
2.07825	
2.07062	
2.04926	
2.03705	
2.03094	
2.04163	
2.03705	
2.04163	
2.0401	
2.03552	
2.03857	
2.034	
2.034	
2.04315	
2.04468	
2.0401	
2.03857	
2.0401	
2.03705	
2.02789	
2.04163	
2.0462	
2.05536	
2.07367	
2.07214	
2.07825	
2.07977	
2.07062	
2.06604	
2.06909	
2.06604	
2.05688	
2.04468	
2.02789	
2.02026	
2.02789	
2.03247	
2.03705	
2.04315	
2.0462	
2.05536	
2.05536	
2.05383	
2.04315	
2.03857	
2.04315	
2.04315	
2.04468	
2.05078	
2.06299	
2.05841	
2.05841	
2.05994	
2.06451	
2.07367	
2.06909	
2.07062	
2.06451	
2.06299	
2.06299	
2.05994	
2.05688	
2.05078	
2.05231	
2.05231	
2.05383	
2.05994	
2.05994	
2.06757	
2.07214	
2.0752	
2.08588	
2.0874	
2.09351	
2.08435	
2.07367	
2.05536	
2.04926	
2.0401	
2.0752	
2.07367	
2.07825	
2.07214	
2.05841	
2.05383	
2.05536	
2.05688	
2.05231	
2.0462	
2.04315	
2.02789	
2.00806	
1.9989	
2.00195	
2.01416	
2.02789	
2.0401	
2.0462	
2.05078	
2.05231	
2.04926	
2.05688	
2.06299	
2.08282	
2.0813	
2.08282	
2.07825	
2.07672	
2.07977	
2.07672	
2.06757	
2.05841	
2.04315	
2.03094	
2.02637	
2.02789	
2.03247	
2.03094	
2.03552	
2.0401	
2.03857	
2.04773	
2.04468	
2.0401	
2.04468	
2.06604	
2.07977	
2.0752	
2.06604	
2.06757	
2.06299	
2.04773	
2.04926	
2.04926	
2.04926	
2.04926	
2.04468	
2.0401	
2.03247	
2.0401	
2.05231	
2.06299	
2.06909	
2.07214	
2.06757	
2.05688	
2.04773	
2.04315	
2.034	
2.03094	
2.034	
2.04315	
2.04926	
2.04468	
2.0401	
2.04315	
2.03705	
2.04315	
2.05383	
2.06757	
2.07214	
2.07367	
2.07062	
2.06299	
2.05078	
2.05231	
2.04926	
2.04773	
2.04163	
2.04315	
2.04163	
2.0462	
2.0462	
2.07062	
2.0752	
2.0752	
2.07214	
2.06299	
2.06299	
2.06299	
2.06451	
2.06299	
2.05841	
2.06451	
2.09351	
2.10266	
2.11945	
2.11182	
2.09045	
2.0874	
2.08435	
2.0874	
2.07825	
2.06604	
2.05994	
2.05841	
2.05536	
2.04773	
2.05536	
2.04773	
2.03857	
2.03247	
2.034	
2.03552	
2.04315	
2.03247	
2.034	
2.03094	
2.034	
2.03247	
2.03857	
2.04163	
2.04773	
2.05536	
2.05688	
2.06299	
2.06757	
2.05688	
2.04773	
2.04468	
2.04163	
2.03857	
2.03857	
2.05078	
2.05231	
2.05536	
2.05536	
2.05688	
2.05231	
2.06451	
2.09351	
2.11487	
2.11639	
2.09656	
2.08282	
2.0752	
2.07214	
2.05994	
2.05231	
2.06909	
2.08435	
2.0752	
2.07062	
2.06451	
2.07672	
2.08435	
2.09503	
2.10114	
2.09351	
2.0813	
2.06604	
2.05078	
2.04315	
2.02637	
2.02026	
2.02179	
2.03094	
2.04315	
2.05078	
2.04926	
2.04315	
2.04163	
2.04315	
2.05536	
2.06909	
2.06757	
2.06909	
2.05536	
2.04773	
2.0462	
2.04926	
2.0462	
2.0462	
2.04468	
2.05078	
2.05841	
2.07214	
2.06909	
2.06909	
2.06757	
2.06909	
2.06757	
2.06451	
2.06299	
2.05841	
2.05383	
2.06299	
2.09045	
2.10724	
2.10266	
2.09656	
2.08435	
2.0752	
2.06909	
2.05383	
2.03705	
2.02332	
2.01874	
2.01874	
2.02179	
2.02332	
2.03552	
2.04315	
2.03857	
2.04315	
2.07214	
2.07825	
2.0752	
2.06909	
2.06299	
2.05994	
2.05841	
2.07062	
2.08435	
2.08588	
2.08893	
2.0874	
2.07672	
2.06604	
2.06451	
2.05688	
2.04926	
2.04315	
2.04163	
2.03857	
2.0462	
2.04315	
2.0462	
2.05078	
2.04926	
2.05231	
2.05383	
2.05994	
2.05688	
2.05841	
2.05688	
2.06604	
2.06451	
2.05231	
2.04926	
2.04773	
2.04773	
2.05078	
2.05688	
2.05841	
2.05841	
2.05994	
2.06451	
2.09351	
2.08282	
2.07977	
2.07825	
2.07062	
2.05994	
2.05078	
2.04773	
2.04468	
2.03705	
2.034	
2.02789	
2.034	
2.03247	
2.04163	
2.04468	
2.0462	
2.04315	
2.06604	
2.07977	
2.07367	
2.06909	
2.05383	
2.05688	
2.04773	
2.05383	
2.05536	
2.07825	
2.08893	
2.09045	
2.07977	
2.07062	
2.07825	
2.07214	
2.06451	
2.05688	
2.05231	
2.04773	
2.034	
2.01874	
2.01874	
2.04468	
2.05383	
2.05231	
2.06604	
2.06757	
2.05536	
2.05078	
2.04315	
2.034	
2.02332	
2.01874	
2.02484	
2.03247	
2.04163	
2.04315	
2.05383	
2.05841	
2.05688	
2.05383	
2.06299	
2.07977	
2.08588	
2.08893	
2.08893	
2.0813	
2.07214	
2.06299	
2.05078	
2.04773	
2.0401	
2.03247	
2.02789	
2.02484	
2.01874	
2.02484	
2.03705	
2.04315	
2.04926	
2.05383	
2.05536	
2.05841	
2.06299	
2.05994	
2.05994	
2.05688	
2.05231	
2.05078	
2.05231	
2.04468	
2.04773	
2.0462	
2.0462	
2.05078	
2.05383	
2.05688	
2.05231	
2.05231	
2.05078	
2.04926	
2.04926	
2.04926	
2.05841	
2.07367	
2.06909	
2.06451	
2.05994	
2.05841	
2.06299	
2.06451	
2.07062	
2.08893	
2.11792	
2.11792	
2.09656	
2.07825	
2.06757	
2.05078	
2.0401	
2.02179	
2.01111	
1.9989	
1.99432	
2.00195	
2.00653	
2.01569	
2.02484	
2.034	
2.0462	
2.05994	
2.06451	
2.06451	
2.06604	
2.06451	
2.06299	
2.05383	
2.05078	
2.05536	
2.06299	
2.06451	
2.06451	
2.06604	
2.05994	
2.05688	
2.07214	
2.0813	
2.0874	
2.10876	
2.14386	
2.13318	
2.10419	
2.08893	
2.07062	
2.05536	
2.04468	
2.0462	
2.05231	
2.06299	
2.06451	
2.06451	
2.07367	
2.05994	
2.05078	
2.0401	
2.02179	
2.03857	
2.05688	
2.05383	
2.04773	
2.04926	
2.04773	
2.04315	
2.03705	
2.02332	
2.02179	
2.02332	
2.02789	
2.03552	
2.03094	
2.034	
2.03705	
2.05078	
2.05841	
2.06451	
2.06299	
2.06299	
2.06604	
2.06757	
2.06451	
2.05841	
2.05383	
2.05536	
2.05841	
2.05841	
2.06757	
2.07672	
2.0752	
2.07214	
2.06909	
2.07367	
2.0813	
2.08282	
2.0813	
2.07977	
2.07977	
2.07825	
2.06909	
2.06451	
2.0462	
2.03705	
2.03247	
2.03247	
2.04163	
2.05231	
2.05994	
2.07214	
2.07062	
2.06909	
2.06909	
2.06299	
2.06299	
2.06451	
2.05688	
2.05383	
2.0462	
2.0462	
2.04315	
2.03705	
2.03857	
2.0462	
2.05383	
2.05078	
2.05688	
2.06604	
2.07367	
2.0752	
2.07367	
2.07367	
2.07825	
2.0813	
2.08588	
2.09503	
2.11487	
2.15149	
2.14844	
2.13318	
2.10876	
2.07825	
2.04773	
2.03247	
2.00958	
1.98822	
1.97449	
1.97296	
1.97601	
2.01111	
2.04468	
2.06451	
2.06757	
2.0752	
2.08588	
2.08435	
2.08588	
2.0874	
2.0813	
2.07214	
2.05383	
2.04163	
2.03705	
2.03552	
2.03705	
2.05078	
2.05841	
2.07214	
2.05994	
2.05078	
2.05078	
2.05688	
2.0813	
2.09656	
2.09961	
2.10724	
2.08893	
2.07214	
2.05841	
2.04926	
2.04163	
2.04315	
2.03705	
2.03552	
2.03705	
2.03552	
2.03857	
2.04315	
2.0401	
2.04468	
2.04926	
2.05841	
2.06757	
2.06604	
2.05841	
2.05536	
2.05078	
2.05383	
2.05383	
2.05231	
2.05536	
2.05841	
2.05383	
2.05688	
2.06299	
2.06451	
2.06451	
2.05994	
2.05841	
2.06757	
2.06451	
2.06757	
2.07062	
2.05994	
2.05536	
2.05536	
2.05078	
2.05536	
2.05536	
2.05994	
2.05841	
2.05994	
2.06757	
2.06757	
2.06757	
2.06299	
2.06299	
2.06299	
2.06451	
2.05994	
2.05841	
2.06451	
2.06909	
2.05994	
2.06451	
2.05688	
2.07825	
2.08893	
2.0874	
2.07672	
2.0752	
2.08435	
2.08435	
2.07977	
2.06604	
2.05383	
2.04773	
2.03857	
2.03705	
2.034	
2.034	
2.04163	
2.04315	
2.05231	
2.05078	
2.05383	
2.05841	
2.05994	
2.06757	
2.07062	
2.07062	
2.06757	
2.06451	
2.06299	
2.06299	
2.06451	
2.06299	
2.05383	
2.05078	
2.06451	
2.07825	
2.0874	
2.08893	
2.07672	
2.06299	
2.07977	
2.11182	
2.10114	
2.08282	
2.07367	
2.05841	
2.05231	
2.0462	
2.07062	
2.09961	
2.09503	
2.09045	
2.07672	
2.06299	
2.05078	
2.03857	
2.02332	
2.01721	
2.01569	
2.01874	
2.01874	
2.02179	
2.02637	
2.034	
2.03705	
2.03857	
2.05231	
2.06451	
2.07062	
2.06909	
2.06299	
2.05078	
2.0462	
2.04315	
2.04468	
2.04163	
2.0401	
2.0462	
2.04468	
2.04468	
2.05078	
2.04926	
2.04926	
2.04926	
2.05078	
2.05383	
2.05231	
2.05383	
2.05841	
2.05383	
2.05688	
2.06757	
2.06299	
2.05688	
2.05536	
2.05383	
2.05078	
2.05536	
2.06757	
2.06299	
2.05994	
2.06299	
2.05994	
2.06299	
2.05383	
2.04773	
2.04468	
2.0462	
2.0462	
2.05383	
2.06299	
2.06757	
2.07062	
2.06451	
2.06299	
2.05688	
2.05688	
2.06299	
2.05841	
2.05383	
2.05536	
2.07062	
2.07672	
2.0813	
2.07672	
2.07214	
2.06451	
2.05536	
2.05383	
2.05383	
2.04773	
2.0462	
2.0401	
2.03857	
2.03247	
2.02789	
2.034	
2.03705	
2.03857	
2.04926	
2.05231	
2.05994	
2.06909	
2.0752	
2.05994	
2.06299	
2.07825	
2.07062	
2.06757	
2.05841	
2.05231	
2.06451	
2.07062	
2.08282	
2.08588	
2.0752	
2.06757	
2.05536	
2.04926	
2.05078	
2.05078	
2.06299	
2.05688	
2.05688	
2.04315	
2.034	
2.03247	
2.02637	
2.02637	
2.02789	
2.034	
2.03094	
2.02789	
2.03552	
2.0401	
2.0462	
2.05078	
2.05536	
2.05536	
2.05383	
2.05078	
2.05383	
2.05383	
2.05078	
2.05231	
2.07367	
2.0752	
2.07367	
2.07214	
2.09503	
2.10266	
2.08893	
2.07825	
2.06909	
2.05994	
2.05688	
2.05231	
2.0462	
2.03705	
2.03857	
2.04163	
2.04315	
2.04773	
2.05231	
2.06757	
2.06451	
2.05231	
2.04773	
2.04773	
2.05383	
2.04773	
2.0462	
2.0401	
2.05383	
2.05994	
2.04315	
2.04773	
2.05994	
2.05841	
2.07062	
2.06909	
2.07062	
2.06299	
2.05383	
2.04773	
2.04163	
2.02637	
2.02789	
2.02637	
2.02332	
2.02484	
2.03094	
2.03552	
2.02789	
2.034	
2.03857	
2.04468	
2.0462	
2.05078	
2.04773	
2.05078	
2.05231	
2.05078	
2.0462	
2.05536	
2.06757	
2.06757	
2.07367	
2.07062	
2.05841	
2.05536	
2.0462	
2.04163	
2.0401	
2.034	
2.03552	
2.04163	
2.0401	
2.04163	
2.05078	
2.04773	
2.04315	
2.04773	
2.04468	
2.04468	
2.0401	
2.04315	
2.0462	
2.0462	
2.05231	
2.05383	
2.05231	
2.05231	
2.04163	
2.02789	
2.02789	
2.03857	
2.05994	
2.06299	
2.07214	
2.0752	
2.07825	
2.07367	
2.07367	
2.05994	
2.05688	
2.05994	
2.05231	
2.04163	
2.03094	
2.02332	
2.03705	
2.06451	
2.07825	
2.09656	
2.09656	
2.08282	
2.05688	
2.04926	
2.034	
2.02332	
2.01569	
2.00958	
2.01569	
2.01721	
2.02789	
2.03552	
2.04773	
2.05078	
2.04926	
2.05231	
2.05994	
2.05994	
2.06299	
2.05994	
2.05841	
2.04926	
2.05688	
2.06299	
2.06299	
2.05688	
2.05841	
2.06451	
2.06299	
2.09503	
2.09656	
2.08893	
2.08282	
2.06909	
2.05383	
2.04315	
2.03247	
2.03094	
2.03094	
2.034	
2.04315	
2.0462	
2.04468	
2.04773	
2.05078	
2.05994	
2.06604	
2.07367	
2.0813	
2.07672	
2.06604	
2.05994	
2.05994	
2.05383	
2.05383	
2.05536	
2.06604	
2.06604	
2.07214	
2.06299	
2.05078	
2.05383	
2.05688	
2.06451	
2.06757	
2.06909	
2.05841	
2.0462	
2.0462	
2.04163	
2.0462	
2.06909	
2.0752	
2.07825	
2.0874	
2.09656	
2.0813	
2.06451	
2.05688	
2.0462	
2.04315	
2.02637	
2.02026	
2.01416	
2.01263	
2.02332	
2.02789	
2.04468	
2.05231	
2.05536	
2.05688	
2.06451	
2.06909	
2.08893	
2.09961	
2.09351	
2.08435	
2.08588	
2.0813	
2.0752	
2.07214	
2.07214	
2.07214	
2.06604	
2.05383	
2.0401	
2.03705	
2.03705	
2.05078	
2.05841	
2.09656	
2.11945	
2.13318	
2.12555	
2.11334	
2.11182	
2.08893	
2.07367	
2.05994	
2.0401	
2.01569	
2.00958	
2.00348	
2.005	
2.00806	
2.01569	
2.02484	
2.04163	
2.04773	
2.05383	
2.06299	
2.08282	
2.08282	
2.0752	
2.06757	
2.06451	
2.05841	
2.06299	
2.06909	
2.07214	
2.07367	
2.06909	
2.05688	
2.05688	
2.04926	
2.04926	
2.05688	
2.06451	
2.06451	
2.06451	
2.05994	
2.05688	
2.05383	
2.05231	
2.04926	
2.04926	
2.05231	
2.08893	
2.11792	
2.14233	
2.14233	
2.12708	
2.10724	
2.08893	
2.07977	
2.07367	
2.06451	
2.04163	
2.02332	
2.01416	
2.01874	
2.03705	
2.0401	
2.0401	
2.04468	
2.05078	
2.05231	
2.05688	
2.06299	
2.06299	
2.05841	
2.05383	
2.06299	
2.06757	
2.07672	
2.0752	
2.06757	
2.06909	
2.06909	
2.06604	
2.06451	
2.06757	
2.06604	
2.06757	
2.06299	
2.06299	
2.05841	
2.05841	
2.06299	
2.05841	
2.06757	
2.07367	
2.07367	
2.08893	
2.10114	
2.09045	
2.09961	
2.11792	
2.13318	
2.12708	
2.11945	
2.09808	
2.08282	
2.06604	
2.06604	
2.06299	
2.05688	
2.04926	
2.03552	
2.03094	
2.02637	
2.03094	
2.03705	
2.04773	
2.05078	
2.07977	
2.07672	
2.07367	
2.06909	
2.06757	
2.07062	
2.06909	
2.07367	
2.07977	
2.08893	
2.09045	
2.09656	
2.09656	
2.09656	
2.10114	
2.09503	
2.0874	
2.07825	
2.07672	
2.06451	
2.05841	
2.07367	
2.0813	
2.08435	
2.07825	
2.07062	
2.06451	
2.05994	
2.06299	
2.06757	
2.07062	
2.07214	
2.06909	
2.06604	
2.0462	
2.05536	
2.05688	
2.07062	
2.07977	
2.07977	
2.07977	
2.08282	
2.07825	
2.06909	
2.06451	
2.05688	
2.05078	
2.04926	
2.05078	
2.05231	
2.05536	
2.05994	
2.06757	
2.07062	
2.07062	
2.07367	
2.06909	
2.06757	
2.06299	
2.06299	
2.05841	
2.05383	
2.05231	
2.05994	
2.07367	
2.07825	
2.08588	
2.09045	
2.0874	
2.0752	
2.07062	
2.05688	
2.05383	
2.05383	
2.05536	
2.05078	
2.04773	
2.05536	
2.05994	
2.06451	
2.05383	
2.05536	
2.06299	
2.06909	
2.0752	
2.07062	
2.07214	
2.0752	
2.07214	
2.07062	
2.0752	
2.08588	
2.08893	
2.08282	
2.07825	
2.06604	
2.05688	
2.05994	
2.07214	
2.06909	
2.06451	
2.05231	
2.05841	
2.07977	
2.08893	
2.08893	
2.07214	
2.07977	
2.08435	
2.08435	
2.07825	
2.07367	
2.06299	
2.05231	
2.05536	
2.07672	
2.09351	
2.09045	
2.08588	
2.0813	
2.08282	
2.08435	
2.07367	
2.05536	
2.04926	
2.03857	
2.03552	
2.034	
2.03552	
2.0401	
2.04468	
2.04926	
2.05383	
2.05841	
2.05994	
2.06604	
2.06909	
2.07214	
2.07367	
2.07214	
2.09045	
2.09351	
2.09045	
2.0874	
2.07977	
2.07367	
2.06757	
2.05536	
2.05688	
2.05994	
2.06757	
2.05994	
2.05688	
2.05841	
2.06604	
2.07062	
2.06909	
2.07062	
2.06604	
2.05994	
2.06757	
2.05841	
2.06299	
2.05383	
2.04773	
2.0401	
2.04163	
2.05078	
2.05688	
2.05841	
2.06757	
2.06451	
2.07367	
2.07367	
2.07825	
2.06757	
2.07825	
2.0813	
2.07367	
2.06909	
2.05994	
2.05078	
2.05078	
2.04926	
2.04926	
2.04315	
2.03705	
2.04163	
2.04315	
2.04926	
2.07672	
2.11182	
2.11487	
2.11487	
2.11334	
2.11334	
2.10724	
2.09351	
2.07672	
2.05536	
2.0401	
2.04163	
2.03857	
2.03094	
2.02789	
2.04926	
2.05841	
2.05841	
2.06299	
2.07367	
2.07825	
2.05994	
2.0462	
2.03857	
2.034	
2.03552	
2.04773	
2.07825	
2.0813	
2.08588	
2.11029	
2.10114	
2.0874	
2.07214	
2.07214	
2.06757	
2.05841	
2.05231	
2.04773	
2.0462	
2.0462	
2.06604	
2.08435	
2.09808	
2.09045	
2.09351	
2.0874	
2.09045	
2.09351	
2.08588	
2.07672	
2.06909	
2.05841	
2.05078	
2.04926	
2.04315	
2.07214	
2.07062	
2.0813	
2.07672	
2.07672	
2.08282	
2.09503	
2.09351	
2.07825	
2.06909	
2.0813	
2.0752	
2.06299	
2.05688	
2.05841	
2.05688	
2.0462	
2.05688	
2.07062	
2.07214	
2.05841	
2.04926	
2.04468	
2.04926	
2.06451	
2.07672	
2.0813	
2.08282	
2.0752	
2.07367	
2.06604	
2.05688	
2.05078	
2.04773	
2.0462	
2.04926	
2.05841	
2.07062	
2.06909	
2.07672	
2.08435	
2.08282	
2.08435	
2.10266	
2.10266	
2.09656	
2.08893	
2.0813	
2.07825	
2.07062	
2.06909	
2.06604	
2.05994	
2.05688	
2.04773	
2.03705	
2.03247	
2.04468	
2.07367	
2.10114	
2.12097	
2.1347	
2.14081	
2.12555	
2.11334	
2.09045	
2.06909	
2.05536	
2.0401	
2.04163	
2.03552	
2.03247	
2.02789	
2.03705	
2.05841	
2.06909	
2.06451	
2.06451	
2.06757	
2.05688	
2.05231	
2.04926	
2.0752	
2.07977	
2.07367	
2.0813	
2.09045	
2.09351	
2.08435	
2.0874	
2.0813	
2.07367	
2.06757	
2.05841	
2.06299	
2.05994	
2.04926	
2.04773	
2.0462	
2.04163	
2.0462	
2.05383	
2.05994	
2.05994	
2.06604	
2.07214	
2.07214	
2.07214	
2.07062	
2.07214	
2.06757	
2.06451	
2.05536	
2.05536	
2.05231	
2.04773	
2.04773	
2.05078	
2.05994	
2.06299	
2.05994	
2.06604	
2.06909	
2.07367	
2.09503	
2.12097	
2.1347	
2.13013	
2.12708	
2.11182	
2.09351	
2.0752	
2.05688	
2.04773	
2.0462	
2.03857	
2.03552	
2.03552	
2.03552	
2.03857	
2.04315	
2.04315	
2.03705	
2.03247	
2.04468	
2.0401	
2.03705	
2.034	
2.03094	
2.04163	
2.05383	
2.06757	
2.0752	
2.0752	
2.07672	
2.0752	
2.06604	
2.05078	
2.04163	
2.05231	
2.06604	
2.07214	
2.08893	
2.10419	
2.09961	
2.09656	
2.09045	
2.0752	
2.06757	
2.05688	
2.04468	
2.04773	
2.05231	
2.04773	
2.04315	
2.03705	
2.03857	
2.04468	
2.0462	
2.04163	
2.03705	
2.03857	
2.03552	
2.02484	
2.02179	
2.03247	
2.05078	
2.07214	
2.09503	
2.10266	
2.08893	
2.07367	
2.05536	
2.04468	
2.03094	
2.01569	
2.00195	
1.98822	
1.98669	
1.98517	
2.005	
2.01874	
2.03247	
2.04773	
2.05994	
2.05994	
2.06451	
2.06757	
2.06299	
2.06451	
2.05994	
2.05688	
2.05383	
2.05078	
2.05383	
2.04926	
2.0462	
2.04926	
2.05078	
2.05231	
2.0462	
2.05231	
2.05688	
2.0752	
2.08893	
2.09045	
2.0813	
2.06757	
2.04926	
2.03705	
2.02332	
2.01569	
2.01416	
2.02026	
2.03094	
2.04773	
2.05536	
2.05688	
2.05841	
2.06299	
2.05688	
2.05231	
2.04773	
2.04926	
2.05383	
2.05078	
2.04315	
2.03552	
2.03247	
2.034	
2.03247	
2.03094	
2.034	
2.03705	
2.04926	
2.06604	
2.06757	
2.06299	
2.05841	
2.05231	
2.04315	
2.04163	
2.03857	
2.0401	
2.04163	
2.03857	
2.03247	
2.02789	
2.02637	
2.02789	
2.03705	
2.03552	
2.03705	
2.04163	
2.04315	
2.0401	
2.03857	
2.03705	
2.03552	
2.034	
2.03857	
2.0401	
2.03552	
2.0401	
2.03705	
2.0401	
2.03705	
2.03857	
2.04163	
2.04315	
2.0462	
2.0462	
2.0462	
2.04468	
2.04163	
2.04163	
2.03857	
2.03705	
2.03857	
2.03552	
2.034	
2.03552	
2.03857	
2.03857	
2.04163	
2.0401	
2.03857	
2.03705	
2.03857	
2.03552	
2.034	
2.03552	
2.034	
2.03247	
2.03247	
2.04773	
2.05383	
2.04773	
2.04163	
2.03705	
2.02789	
2.02332	
2.01721	
2.01416	
2.005	
2.00806	
2.01111	
2.01569	
2.01874	
2.02026	
2.02637	
2.04468	
2.07367	
2.08435	
2.08435	
2.10876	
2.10114	
2.08588	
2.06757	
2.04773	
2.02637	
2.01416	
2.00806	
2.01111	
2.01263	
2.01111	
2.00806	
2.005	
2.03857	
2.02789	
2.02637	
2.02484	
2.01874	
2.03094	
2.05231	
2.04163	
2.03705	
2.04926	
2.0462	
2.05383	
2.04468	
2.03247	
2.02637	
2.02332	
2.034	
2.02789	
2.03705	
2.034	
2.03247	
2.02026	
2.02026	
2.01721	
2.01263	
2.03094	
2.05383	
2.05231	
2.05078	
2.03857	
2.0401	
2.03094	
2.03552	
2.03552	
2.03094	
2.02789	
2.02332	
2.03857	
2.0462	
2.04468	
2.04315	
2.05078	
2.05078	
2.0462	
2.03705	
2.034	
2.03857	
2.02179	
2.01263	
2.00653	
2.005	
2.01111	
2.00806	
2.01569	
2.02484	
2.02789	
2.03094	
2.02637	
2.02637	
2.02484	
2.02179	
2.01874	
2.02026	
2.01721	
2.01874	
2.01721	
2.01721	
2.01874	
2.02179	
2.02179	
2.02179	
2.02332	
2.02026	
2.02637	
2.02789	
2.02637	
2.02332	
2.02332	
2.03094	
2.02637	
2.03094	
2.02332	
2.02484	
2.02332	
2.02484	
2.03247	
2.03705	
2.03857	
2.03705	
2.034	
2.03705	
2.03094	
2.02026	
2.01263	
2.00958	
2.00195	
2.00195	
2.02179	
2.04163	
2.05231	
2.07214	
2.07825	
2.06604	
2.05688	
2.05231	
2.04773	
2.0462	
2.0401	
2.03247	
2.02026	
2.00348	
1.98822	
1.99127	
1.99432	
2.00806	
2.04315	
2.07672	
2.06909	
2.05078	
2.0401	
2.034	
2.0401	
2.03094	
2.02637	
2.01569	
1.99432	
1.97906	
1.98364	
1.98517	
1.9928	
2.01263	
2.01721	
2.03247	
2.0401	
2.03857	
2.04773	
2.05078	
2.04468	
2.05841	
2.06909	
2.05994	
2.05078	
2.03705	
2.02332	
2.02026	
2.01111	
2.005	
1.9989	
2.005	
2.00195	
2.00806	
2.02484	
2.034	
2.02484	
2.02332	
2.02332	
2.02637	
2.034	
2.03552	
2.04315	
2.04468	
2.0401	
2.03247	
2.02484	
2.02179	
2.02026	
2.02179	
2.02484	
2.02332	
2.02026	
2.02332	
2.02026	
2.02026	
2.02179	
2.02026	
2.02026	
2.02179	
2.01874	
2.02026	
2.01416	
2.01721	
2.01721	
2.02789	
2.03705	
2.03247	
2.02637	
2.01874	
2.01721	
2.00958	
2.00653	
2.01263	
2.01111	
2.01263	
2.02026	
2.03705	
2.04315	
2.04163	
2.05841	
2.06299	
2.04315	
2.03094	
2.01721	
2.02332	
2.01416	
2.01874	
2.01721	
2.01721	
2.01111	
2.00043	
2.00348	
2.00806	
2.00348	
2.00653	
2.00653	
2.0462	
2.06451	
2.05841	
2.05078	
2.034	
2.02332	
2.02026	
2.01111	
2.00653	
1.99585	
1.9928	
1.99585	
2.00348	
2.005	
2.02179	
2.03247	
2.03857	
2.034	
2.03247	
2.03705	
2.05536	
2.05994	
2.07062	
2.07214	
2.05383	
2.0401	
2.02179	
2.00653	
1.99432	
1.98669	
1.98822	
1.98669	
1.98212	
1.98364	
1.98669	
1.99585	
2.00348	
2.00806	
2.02026	
2.01416	
2.03247	
2.034	
2.03552	
2.02637	
2.02332	
2.02179	
2.02637	
2.03247	
2.03552	
2.03247	
2.02026	
2.01569	
2.01569	
2.02026	
2.02484	
2.03247	
2.034	
2.02789	
2.02789	
2.03247	
2.03552	
2.0401	
2.05078	
2.05994	
2.05994	
2.04773	
2.03552	
2.02484	
2.01569	
2.01263	
2.02026	
2.02484	
2.00958	
2.00806	
2.00195	
2.00806	
2.02026	
2.02789	
2.02789	
2.02332	
2.02026	
2.02484	
2.02637	
2.01874	
2.01874	
2.02026	
2.02026	
2.01874	
2.01416	
2.01263	
2.01569	
2.00958	
2.02789	
2.06299	
2.07214	
2.06604	
2.06604	
2.06909	
2.06451	
2.05231	
2.03705	
2.02332	
2.01111	
1.99432	
1.98364	
1.97906	
1.96686	
1.97296	
1.98212	
1.9989	
2.00806	
2.02637	
2.03552	
2.03247	
2.02637	
2.02179	
2.02332	
2.02789	
2.02179	
2.02484	
2.01721	
2.01416	
2.00958	
2.00806	
2.01263	
2.01263	
2.02026	
2.02484	
2.03094	
2.03552	
2.03857	
2.04315	
2.04315	
2.04315	
2.04926	
2.04315	
2.03705	
2.03247	
2.03857	
2.0462	
2.04468	
2.04926	
2.0462	
2.04468	
2.0401	
2.034	
2.02789	
2.02484	
2.01721	
2.00958	
2.00043	
1.9989	
2.01111	
2.01263	
2.00653	
2.00195	
1.99585	
2.00348	
2.01569	
2.02637	
2.034	
2.03094	
2.02484	
2.01874	
2.02179	
2.01874	
2.03247	
2.04315	
2.04163	
2.03705	
2.03094	
2.02637	
2.01111	
2.00653	
2.005	
1.99432	
1.99432	
2.00043	
2.00806	
2.02026	
2.02484	
2.02789	
2.03247	
2.01874	
2.01111	
2.01874	
2.02637	
2.02789	
2.02332	
2.02789	
2.02026	
2.04163	
2.05231	
2.0462	
2.04163	
2.0462	
2.05231	
2.0462	
2.04926	
2.07825	
2.07672	
2.04926	
2.03857	
2.03552	
2.03552	
2.04163	
2.03552	
2.03094	
2.01721	
2.00653	
1.98669	
1.97754	
1.97296	
1.98364	
1.98975	
1.99432	
2.00958	
2.03857	
2.03552	
2.01874	
2.01263	
2.005	
2.00348	
2.005	
2.00653	
2.00806	
1.99585	
1.9989	
2.00653	
2.00958	
2.01874	
2.02484	
2.03857	
2.04468	
2.03705	
2.03094	
2.02484	
2.02026	
2.01416	
2.00806	
2.00958	
2.00653	
2.00653	
2.01416	
2.00806	
2.00348	
2.00348	
2.01416	
2.02026	
2.02332	
2.03094	
2.034	
2.02332	
2.01569	
2.02484	
2.02637	
2.02484	
2.03552	
2.0401	
2.04926	
2.05536	
2.05688	
2.05231	
2.04315	
2.03094	
2.01874	
2.01416	
2.01416	
2.01263	
2.00958	
2.02332	
2.03552	
2.02789	
2.02179	
2.00806	
2.00195	
2.00195	
2.01263	
2.00806	
2.00653	
2.01111	
2.01111	
2.00348	
2.01569	
2.02484	
2.02484	
2.02637	
2.02637	
2.03094	
2.02026	
2.01416	
2.00195	
2.005	
2.005	
2.00806	
2.005	
2.005	
2.01416	
2.01721	
2.01416	
2.01874	
2.01874	
2.01569	
2.01569	
2.00958	
2.02026	
2.01874	
2.01874	
2.01721	
2.01721	
2.01874	
2.02179	
2.02332	
2.02332	
2.02332	
2.01874	
2.02637	
2.02484	
2.02484	
2.02332	
2.02026	
2.01721	
2.01874	
2.01569	
2.01721	
2.02637	
2.05994	
2.09351	
2.09045	
2.07825	
2.06909	
2.05536	
2.04315	
2.02637	
2.02484	
2.01263	
2.01111	
1.99432	
1.97906	
1.97144	
1.96838	
1.98212	
1.98822	
2.005	
2.00958	
2.00958	
2.01111	
2.02332	
2.03247	
2.03247	
2.03247	
2.03094	
2.02637	
2.02789	
2.01874	
2.01111	
2.005	
2.00195	
2.01569	
2.034	
2.03857	
2.06757	
2.06604	
2.0462	
2.03552	
2.01263	
2.00195	
2.00195	
2.00348	
2.00958	
2.00653	
1.99432	
2.00348	
2.01263	
2.005	
2.01111	
2.01111	
2.00806	
2.00958	
2.01263	
2.01263	
2.01416	
2.00806	
2.00958	
2.00958	
2.01416	
2.01569	
2.02026	
2.02332	
2.02179	
2.01721	
2.01874	
2.02179	
2.02789	
2.03857	
2.04926	
2.05841	
2.06451	
2.05841	
2.04926	
2.0401	
2.04163	
2.04773	
2.05078	
2.04468	
2.03857	
2.02332	
2.01263	
1.99585	
1.98669	
1.97601	
1.97754	
1.97601	
1.98364	
1.99432	
2.00653	
2.01263	
2.02332	
2.03247	
2.03857	
2.03705	
2.03247	
2.03094	
2.034	
2.03552	
2.03094	
2.03705	
2.03705	
2.03552	
2.0401	
2.0462	
2.05078	
2.04315	
2.04468	
2.0401	
2.03552	
2.03247	
2.02637	
2.03705	
2.06909	
2.07062	
2.07062	
2.07825	
2.08435	
2.07367	
2.06451	
2.05536	
2.04315	
2.02789	
2.00806	
1.99127	
1.97449	
1.96686	
1.96686	
1.96838	
1.98364	
2.005	
2.01874	
2.01874	
2.01721	
2.01569	
2.01874	
2.02332	
2.02637	
2.02484	
2.03094	
2.034	
2.03552	
2.034	
2.03857	
2.03247	
2.02637	
2.02789	
2.034	
2.03857	
2.03552	
2.03247	
2.02484	
2.02332	
2.02484	
2.02789	
2.02026	
2.01874	
2.04468	
2.05078	
2.04926	
2.0462	
2.03857	
2.04315	
2.05231	
2.05231	
2.05383	
2.05231	
2.04315	
2.034	
2.01721	
2.01111	
2.01416	
2.01111	
2.01111	
2.01111	
2.00653	
2.00958	
2.00958	
2.01111	
2.01874	
2.02789	
2.04468	
2.05841	
2.06451	
2.06604	
2.05536	
2.04773	
2.0462	
2.04163	
2.03857	
2.03094	
2.03552	
2.03857	
2.034	
2.03247	
2.02332	
2.02179	
2.02026	
2.01721	
2.02179	
2.01416	
2.01263	
2.01263	
2.01416	
2.01569	
2.02484	
2.03247	
2.0401	
2.03705	
2.034	
2.02789	
2.03552	
2.03247	
2.034	
2.03552	
2.0401	
2.04315	
2.04315	
2.04468	
2.04163	
2.0401	
2.04468	
2.0462	
2.04315	
2.03552	
2.03247	
2.05078	
2.05231	
2.05536	
2.05231	
2.04315	
2.02789	
2.02179	
2.02789	
2.05078	
2.04926	
2.04163	
2.03247	
2.01721	
2.01874	
2.02484	
2.02332	
2.02484	
2.02179	
2.01263	
2.00653	
2.00348	
2.00806	
2.03094	
2.03552	
2.04163	
2.02484	
2.02026	
2.01721	
2.02332	
2.01721	
2.01416	
2.01263	
2.01721	
2.02484	
2.02026	
2.01721	
2.01874	
2.01721	
2.01874	
2.01569	
2.00653	
2.00195	
2.00195	
2.00043	
2.00195	
2.00653	
2.00653	
2.00806	
2.01263	
2.02026	
2.02179	
2.02179	
2.02484	
2.02637	
2.02332	
2.02179	
2.02332	
2.03247	
2.02332	
2.02179	
2.02179	
2.02026	
2.01874	
2.02179	
2.03705	
2.04926	
2.04315	
2.0462	
2.05383	
2.05383	
2.05841	
2.07214	
2.08588	
2.10114	
2.09656	
2.07062	
2.04315	
2.00958	
1.98059	
1.96838	
1.95618	
1.95007	
1.9455	
1.9516	
1.95618	
1.96838	
1.98212	
1.98517	
1.98975	
1.9989	
2.00653	
2.01263	
2.02026	
2.01569	
2.01721	
2.01721	
2.02484	
2.03857	
2.03705	
2.05536	
2.05383	
2.05078	
2.0401	
2.03094	
2.01569	
2.00806	
2.00043	
1.9928	
1.98517	
1.98517	
1.98517	
1.98822	
1.98975	
1.99585	
2.00806	
2.01263	
2.05231	
2.0752	
2.07367	
2.06299	
2.04315	
2.01874	
2.00653	
1.99585	
1.9928	
1.99432	
1.98364	
1.97296	
1.96838	
1.97144	
1.97449	
1.98975	
2.00653	
2.02026	
2.03857	
2.03247	
2.02637	
2.01721	
2.00958	
2.01416	
2.00806	
2.01111	
2.01569	
2.01263	
2.01416	
2.01721	
2.02026	
2.01569	
2.01874	
2.01416	
2.02637	
2.02789	
2.03094	
2.03705	
2.03857	
2.03705	
2.03552	
2.03247	
2.02332	
2.01721	
2.00958	
2.005	
2.00043	
1.98975	
1.98975	
2.00043	
2.005	
2.01416	
2.01721	
2.02179	
2.01263	
2.00653	
2.005	
2.01263	
2.00806	
2.01721	
2.02637	
2.03247	
2.03705	
2.03552	
2.0401	
2.03552	
2.02789	
2.02789	
2.02026	
2.00958	
2.00958	
2.01111	
2.01569	
2.02179	
2.034	
2.03552	
2.02484	
2.01263	
2.00806	
2.00653	
2.00806	
2.00806	
2.005	
2.00653	
2.00806	
2.01263	
2.01569	
2.01569	
2.02026	
2.03552	
2.0462	
2.07367	
2.07062	
2.05536	
2.03552	
2.01721	
2.00348	
1.9989	
1.9989	
1.9989	
1.9989	
2.00195	
2.005	
1.9989	
1.98669	
1.98822	
1.9928	
2.00653	
2.01416	
2.01721	
2.03857	
2.0462	
2.0462	
2.03705	
2.02637	
2.03247	
2.04468	
2.05231	
2.0462	
2.03857	
2.034	
2.03094	
2.02789	
2.02789	
2.03094	
2.03094	
2.02332	
2.01874	
2.00806	
2.01111	
2.00348	
2.005	
2.00806	
2.01263	
2.02637	
2.0401	
2.04315	
2.034	
2.01874	
2.01263	
2.00806	
2.00348	
2.005	
2.00348	
1.9989	
2.00806	
2.01569	
2.01416	
2.02026	
2.03247	
2.03705	
2.03857	
2.04468	
2.04926	
2.04315	
2.03705	
2.03094	
2.02637	
2.0401	
2.0462	
2.04163	
2.0462	
2.04163	
2.03552	
2.02179	
2.01263	
2.00043	
1.99127	
1.9989	
2.00195	
2.00043	
2.01263	
2.005	
2.00043	
2.005	
2.00958	
2.01111	
2.01721	
2.02332	
2.03857	
2.04926	
2.0462	
2.05841	
2.06757	
2.05994	
2.0462	
2.03552	
2.03857	
2.0462	
2.04773	
2.08588	
2.0752	
2.05383	
2.02332	
1.9989	
1.98212	
1.98059	
1.98517	
1.98364	
1.98517	
1.97449	
1.98517	
1.9989	
1.98364	
1.98364	
1.99127	
1.99585	
2.00653	
2.02179	
2.03247	
2.02484	
2.02179	
2.03247	
2.03705	
2.034	
2.03857	
2.034	
2.02637	
2.01721	
2.00806	
2.00043	
1.98975	
1.99432	
2.01111	
2.01416	
2.01569	
2.01874	
2.02332	
2.034	
2.034	
2.03552	
2.03247	
2.03247	
2.02026	
2.01416	
2.005	
1.99585	
1.9928	
1.99585	
1.9989	
2.005	
2.00958	
1.9989	
2.005	
2.01569	
2.01569	
2.01874	
2.02026	
2.01721	
2.01721	
2.01416	
2.01416	
2.02179	
2.02332	
2.02179	
2.00958	
2.00348	
1.98822	
1.99585	
2.00958	
2.00806	
2.00806	
2.01874	
2.01874	
2.0462	
2.06757	
2.06451	
2.05994	
2.04773	
2.03705	
2.0401	
2.034	
2.01416	
2.00806	
1.99127	
1.98669	
2.00348	
2.01874	
2.02637	
2.03705	
2.04468	
2.05231	
2.06299	
2.06299	
2.0401	
2.02026	
2.01111	
2.00653	
2.00806	
2.01721	
2.02332	
2.03552	
2.03705	
2.034	
2.02026	
2.01111	
2.00348	
2.005	
2.005	
2.00653	
2.00348	
2.00653	
2.005	
1.9989	
1.98975	
1.99127	
2.00043	
2.005	
2.01111	
2.01416	
2.01874	
2.02179	
2.03857	
2.05383	
2.04926	
2.04315	
2.03247	
2.02637	
2.02179	
2.01111	
2.00195	
2.00806	
2.00195	
1.98517	
1.9989	
2.02332	
2.01263	
2.01416	
2.02179	
2.034	
2.0752	
2.09503	
2.07062	
2.04773	
2.034	
2.01263	
2.00653	
2.00653	
2.01263	
2.02026	
2.03094	
2.01874	
2.01263	
2.01721	
2.02484	
2.03552	
2.034	
2.02179	
2.01416	
2.00958	
2.00043	
2.00958	
2.01721	
2.01569	
2.02789	
2.03552	
2.02484	
2.02179	
2.01416	
2.005	
2.00348	
1.9989	
2.00195	
2.005	
1.99585	
2.01111	
2.01111	
2.00958	
2.02637	
2.03247	
2.03552	
2.04163	
2.02789	
2.03094	
2.02026	
2.00958	
2.00806	
2.00958	
2.02026	
2.01874	
2.01874	
2.01569	
2.01569	
2.01416	
2.01569	
2.01111	
2.01111	
2.01263	
2.02026	
2.03094	
2.034	
2.03705	
2.03094	
2.02484	
2.02026	
2.02484	
2.02637	
2.02484	
2.02179	
2.01111	
2.00806	
2.01263	
2.03857	
2.03857	
2.0401	
2.06909	
2.07062	
2.06909	
2.0462	
2.04315	
2.02789	
2.01569	
2.00195	
1.9928	
1.98822	
1.9928	
1.98669	
1.99585	
1.98975	
1.99127	
2.00348	
2.01416	
2.02332	
2.03247	
2.01874	
2.01111	
2.00806	
2.01569	
2.02026	
2.0462	
2.05688	
2.05688	
2.06451	
2.04773	
2.034	
2.03094	
2.01721	
2.00958	
2.00653	
2.02026	
2.05231	
2.05994	
2.06451	
2.04926	
2.03705	
2.04163	
2.034	
2.02484	
2.00653	
1.9928	
1.98517	
2.00043	
2.00348	
1.99585	
2.01569	
2.02026	
2.01721	
2.01874	
2.01874	
2.02789	
2.03705	
2.03552	
2.03094	
2.02026	
2.01263	
2.01721	
2.02332	
2.0401	
2.05231	
2.05841	
2.06757	
2.06604	
2.05383	
2.034	
2.01721	
2.00653	
1.98669	
1.97754	
1.97754	
1.96838	
1.96991	
1.97296	
1.98364	
1.99127	
2.01263	
2.02332	
2.01416	
2.02026	
2.02179	
2.02179	
2.034	
2.03094	
2.03094	
2.02179	
2.02484	
2.05231	
2.05231	
2.04773	
2.03705	
2.034	
2.02484	
2.02637	
2.02179	
2.02179	
2.01416	
2.00958	
2.01111	
2.01416	
2.01416	
2.02179	
2.02026	
2.02179	
2.02637	
2.02637	
2.02179	
2.01416	
2.01111	
2.03705	
2.05231	
2.04926	
2.04926	
2.03705	
2.02179	
2.00348	
2.00348	
2.00043	
1.98822	
1.97144	
1.97449	
1.97906	
2.00195	
2.02026	
2.03247	
2.034	
2.04926	
2.04163	
2.03705	
2.03552	
2.03552	
2.034	
2.0401	
2.06451	
2.10266	
2.09045	
2.07825	
2.03857	
2.01874	
1.9928	
1.98059	
1.95618	
1.95313	
1.9516	
1.97296	
2.00195	
2.03857	
2.04468	
2.0401	
2.03705	
2.03552	
2.01263	
2.00806	
2.01111	
2.01111	
1.9989	
1.9928	
1.98669	
1.97906	
1.98669	
1.9928	
1.98975	
1.99432	
1.9989	
1.99585	
1.99432	
1.99432	
1.98822	
1.99432	
2.00806	
2.00958	
2.00348	
2.01569	
2.00958	
2.01721	
2.00043	
2.00348	
2.00195	
2.00043	
2.00958	
2.01111	
2.01111	
2.00806	
2.02332	
2.04315	
2.03247	
2.03705	
2.03094	
2.02332	
2.02179	
2.01569	
2.00958	
2.00806	
2.00348	
1.99432	
1.98212	
1.98059	
1.98059	
1.98975	
1.9989	
2.01721	
2.03705	
2.05078	
2.04468	
2.03094	
2.01263	
2.01111	
2.00958	
2.01416	
2.01721	
2.00806	
2.01111	
2.00195	
1.99585	
1.99432	
1.99432	
1.99585	
2.00195	
2.00043	
1.9989	
1.99432	
1.99432	
1.9989	
2.00348	
2.01416	
2.01721	
2.01416	
2.02332	
2.01874	
2.01874	
2.01874	
2.00195	
2.00348	
1.99432	
2.00195	
2.005	
2.01263	
2.02026	
2.02179	
2.02484	
2.02179	
2.02332	
2.02026	
2.01874	
2.01111	
2.03857	
2.05078	
2.04468	
2.03857	
2.04315	
2.034	
2.02484	
2.01569	
2.00806	
1.99432	
1.98517	
1.98212	
1.99432	
1.99127	
1.99585	
2.00958	
2.00806	
2.00653	
2.00043	
2.00348	
2.00195	
1.98669	
1.98975	
2.00958	
2.02484	
2.02637	
2.02484	
2.03094	
2.02179	
2.01721	
2.01721	
2.03094	
2.0462	
2.06299	
2.05841	
2.04468	
2.02179	
1.99432	
1.98212	
1.98059	
1.97601	
1.97754	
1.97449	
1.96838	
1.96991	
1.96686	
1.98364	
2.00348	
2.00958	
2.01569	
2.04315	
2.04773	
2.04163	
2.034	
2.02484	
2.02637	
2.01874	
2.00653	
1.98822	
1.98364	
1.97906	
1.98059	
1.98822	
1.98517	
1.98975	
1.98975	
1.98822	
1.98669	
1.98822	
1.99585	
2.00195	
2.00348	
2.005	
2.00806	
2.01111	
2.02789	
2.034	
2.03552	
2.02789	
2.02026	
2.01263	
2.00958	
2.00806	
1.99127	
1.9989	
2.00806	
2.01721	
2.01569	
2.02789	
2.02026	
2.01721	
2.01874	
2.01874	
2.02484	
2.03094	
2.02484	
2.02026	
2.01416	
1.99585	
1.98517	
1.97296	
1.97449	
1.97296	
1.97601	
1.98517	
1.98059	
1.97601	
1.98517	
1.98822	
1.99585	
1.99432	
2.00195	
2.00195	
2.00195	
2.00348	
1.99432	
1.9928	
1.98975	
1.98669	
1.98364	
1.98975	
1.98975	
2.00195	
1.9928	
2.00195	
2.00653	
2.02484	
2.02637	
2.01874	
2.01569	
2.01416	
2.00806	
2.00195	
1.9928	
1.98975	
1.98975	
2.005	
1.9989	
1.99432	
2.01111	
2.01721	
2.03705	
2.04315	
2.05231	
2.06604	
2.05536	
2.03857	
2.02332	
2.00348	
1.98212	
1.95465	
1.9455	
1.96991	
1.98364	
1.98975	
1.98669	
1.98822	
1.9989	
2.00653	
2.005	
2.005	
2.00348	
2.00043	
1.97906	
1.97754	
1.97144	
1.96838	
1.98059	
1.98364	
1.98822	
1.9989	
1.9989	
1.99585	
1.9989	
1.99127	
1.98669	
1.98669	
1.99432	
1.99585	
2.00043	
2.00043	
2.01416	
2.01111	
2.00348	
2.01263	
2.00653	
2.01721	
2.01874	
2.00958	
2.00195	
1.9928	
1.98822	
1.98822	
1.98364	
1.98059	
1.98975	
1.99585	
1.99127	
1.98212	
1.97906	
1.97754	
1.98059	
1.98822	
1.98669	
2.00195	
2.00348	
1.9989	
2.00653	
2.00653	
1.9989	
2.00043	
2.00195	
2.00653	
2.01111	
2.00653	
2.01569	
2.02179	
2.01874	
2.01721	
2.01416	
2.01111	
2.01111	
2.00806	
1.99432	
1.9928	
1.97449	
1.9516	
1.94092	
1.94092	
1.9455	
1.9455	
1.95923	
1.96991	
1.98364	
1.98822	
1.9928	
2.00043	
2.005	
2.02332	
2.02789	
2.02789	
2.03094	
2.01111	
2.00653	
1.99432	
1.99432	
2.00043	
1.9989	
2.00806	
2.01111	
2.00348	
1.99432	
2.005	
1.99127	
1.97601	
1.96838	
1.96381	
1.96686	
1.97144	
1.99585	
1.99127	
1.98059	
1.97754	
1.97449	
1.96686	
1.95618	
1.9516	
1.95313	
1.95313	
1.95313	
1.9577	
1.96075	
1.97144	
1.97449	
1.98059	
1.98212	
2.00043	
1.99585	
2.01111	
2.005	
2.00195	
1.99127	
1.99127	
1.9989	
1.99585	
2.00806	
2.00043	
1.99432	
1.98517	
1.98059	
1.97906	
1.97144	
1.96686	
1.95923	
1.95007	
1.94244	
1.94092	
1.9516	
1.95465	
1.96075	
1.96991	
1.97449	
1.97754	
1.97144	
1.98517	
1.98822	
1.97296	
1.96991	
1.96991	
1.96838	
1.97296	
1.98517	
1.98975	
1.99585	
1.98212	
1.97144	
1.97144	
1.97449	
1.98059	
2.00043	
2.00806	
2.00958	
1.99585	
1.98059	
1.96838	
1.95618	
1.9516	
1.96228	
1.95618	
1.9577	
1.95313	
1.95465	
1.95465	
1.95618	
1.95007	
1.94855	
1.94855	
1.95313	
1.95923	
1.96838	
1.96381	
1.97144	
1.98975	
1.98975	
1.9928	
1.98517	
1.97601	
1.96991	
1.96686	
1.96686	
1.96686	
1.97144	
1.96381	
1.95313	
1.95618	
1.96075	
1.97144	
1.97296	
1.96991	
1.97296	
1.97449	
1.97906	
1.97906	
1.96686	
1.97144	
1.96991	
2.005	
2.00195	
1.98364	
1.99432	
1.9928	
1.9928	
1.98822	
1.9928	
2.00195	
1.9928	
1.97906	
1.96838	
1.96075	
1.9455	
1.93329	
1.93787	
1.94092	
1.95007	
1.9577	
1.95923	
1.94244	
1.93329	
1.93176	
1.93329	
1.94244	
1.94244	
1.95618	
1.96381	
1.96686	
1.97296	
1.97449	
2.00043	
2.02026	
2.01721	
2.00195	
2.005	
2.00806	
1.99585	
1.97144	
1.95923	
1.95618	
1.9577	
1.95465	
1.95007	
1.94855	
1.94855	
1.95465	
1.96228	
1.95923	
1.97144	
1.97601	
1.99432	
1.97906	
1.96991	
1.96991	
1.96991	
1.9577	
1.95313	
1.95007	
1.9455	
1.94397	
1.94702	
1.95007	
1.95007	
1.95313	
1.95923	
1.96075	
1.98669	
2.00806	
2.00653	
2.00043	
1.99127	
1.98059	
1.97449	
1.96075	
1.95618	
1.95007	
1.93939	
1.94244	
1.92871	
1.93176	
1.94092	
1.95618	
1.96381	
1.95465	
1.95923	
1.96381	
1.97296	
1.97449	
1.96991	
1.96381	
1.96838	
1.96075	
1.95923	
1.98517	
1.99127	
1.9928	
1.99432	
1.9989	
1.98364	
1.97601	
1.97754	
1.98364	
1.97601	
1.96075	
1.95313	
1.95007	
1.95618	
1.95923	
1.96686	
1.97296	
1.98975	
2.00806	
2.00653	
1.9989	
1.99585	
1.99585	
1.9928	
1.99127	
1.97449	
1.96686	
1.95618	
1.93634	
1.92719	
1.92413	
1.92413	
1.95007	
1.99127	
1.99432	
1.9989	
2.00043	
1.98822	
1.98212	
1.97601	
1.95618	
1.93939	
1.93329	
1.92719	
1.93024	
1.93939	
1.93787	
1.94244	
1.94702	
1.94855	
1.95313	
1.96075	
1.96381	
1.97601	
1.97296	
1.97144	
1.97449	
1.97144	
1.97144	
1.97296	
1.96838	
1.96686	
1.96686	
1.96228	
1.96686	
1.96838	
1.96991	
1.97144	
1.97144	
1.9989	
2.02484	
2.03247	
2.02026	
2.00348	
1.98517	
1.98212	
1.98975	
2.00043	
1.9989	
1.98212	
1.9577	
1.94397	
1.93176	
1.92719	
1.93787	
1.94092	
1.94244	
1.93939	
1.94397	
1.94397	
1.94855	
1.9516	
1.96075	
1.97296	
1.97754	
1.98059	
1.97906	
1.97754	
1.97754	
1.97601	
1.96838	
1.96838	
1.96991	
1.96075	
1.97754	
1.97296	
1.97449	
1.97601	
2.00043	
2.005	
2.005	
2.00653	
2.02637	
2.03552	
2.02179	
2.00958	
2.00653	
1.9989	
1.98364	
1.97296	
1.95465	
1.93634	
1.92719	
1.92871	
1.93024	
1.93176	
1.9516	
1.93787	
1.94397	
1.94244	
1.97906	
2.00806	
2.01874	
2.02179	
2.02637	
2.00806	
1.98517	
1.95923	
1.94092	
1.91803	
1.90887	
1.90887	
1.90887	
1.91956	
1.93787	
1.95465	
1.96838	
1.97144	
1.97144	
1.97449	
1.97754	
1.98059	
1.97601	
1.97144	
1.96075	
1.97144	
1.97449	
1.96991	
1.96686	
1.96838	
1.98059	
1.97754	
1.97906	
1.98212	
1.98669	
2.00348	
2.00195	
1.99432	
1.98975	
1.97906	
1.97296	
1.96075	
1.9577	
1.95313	
1.9455	
1.95007	
1.9577	
1.97449	
1.98975	
2.00958	
1.99585	
1.98669	
1.98822	
1.98212	
1.99432	
1.98975	
1.98669	
1.98364	
1.97754	
1.98059	
1.96838	
1.97144	
1.97601	
1.96075	
1.95313	
1.94397	
1.9455	
1.9455	
1.93939	
1.9455	
1.94702	
1.94397	
1.94702	
1.9516	
1.96686	
1.96991	
1.96838	
1.96381	
1.97144	
1.96838	
1.96381	
1.96228	
1.97754	
1.98059	
1.98059	
1.98822	
1.98517	
1.98517	
1.97144	
1.96838	
1.97754	
1.99585	
1.9989	
1.9989	
2.00043	
1.99585	
1.98822	
1.97754	
1.96991	
1.9928	
1.9989	
2.005	
1.99585	
1.98822	
1.97296	
1.9516	
1.92566	
1.90125	
1.89362	
1.89362	
1.88904	
1.89209	
1.90735	
1.9165	
1.94092	
1.9455	
1.96838	
1.97601	
1.97906	
1.97601	
1.97144	
1.97296	
1.9928	
1.99432	
1.98669	
1.98212	
1.97296	
1.96228	
1.95313	
1.9455	
1.94702	
1.94244	
1.9455	
1.94244	
1.94855	
1.95007	
1.95923	
1.96686	
1.98364	
1.98822	
1.99432	
1.99127	
1.98364	
1.98059	
1.97296	
1.96228	
1.95007	
1.95313	
1.95618	
1.97754	
2.00195	
2.02332	
2.02637	
2.02332	
1.9928	
1.97296	
1.9455	
1.92719	
1.93176	
1.92413	
1.9165	
1.91345	
1.9165	
1.93329	
1.94855	
1.95313	
1.96381	
1.98822	
1.98822	
1.97601	
1.95465	
1.94855	
1.93634	
1.94397	
1.96075	
1.96991	
1.95923	
1.95007	
1.95313	
1.95313	
1.95313	
1.96381	
1.98212	
1.97601	
1.96838	
1.96991	
1.95618	
1.95313	
1.95313	
1.96075	
1.97144	
1.97601	
1.97754	
1.96838	
1.96838	
1.96228	
1.96686	
1.97144	
1.97601	
1.98669	
1.97296	
1.96381	
1.9577	
1.95923	
1.9516	
1.95007	
1.95007	
1.95465	
1.95923	
1.96381	
1.95465	
1.94397	
1.94244	
1.94092	
1.95007	
1.9516	
1.95313	
1.96381	
1.97906	
1.98669	
1.9928	
2.00348	
2.02179	
2.01721	
2.00043	
1.98822	
1.97296	
1.95465	
1.93787	
1.92261	
1.92108	
1.91803	
1.92413	
1.92871	
1.93939	
1.95313	
1.96991	
1.97601	
1.99432	
1.99585	
1.98059	
1.95923	
1.95313	
1.95313	
1.9516	
1.95923	
1.95618	
1.94855	
1.94855	
1.9577	
1.9577	
1.96686	
1.97144	
1.97754	
1.98669	
1.99127	
1.98822	
1.98212	
1.97449	
1.97144	
1.97144	
1.96991	
1.98059	
1.98212	
1.97144	
1.96075	
1.9516	
1.94092	
1.92871	
1.93329	
1.92719	
1.93939	
1.93939	
1.94702	
1.9455	
1.9455	
1.95618	
1.94702	
1.94702	
1.95007	
1.9516	
1.9577	
1.95618	
1.96381	
1.95923	
1.96075	
1.96838	
1.96991	
1.97144	
1.96991	
1.96991	
1.96838	
1.95923	
1.95923	
1.95465	
1.9516	
1.95618	
1.95618	
1.95465	
1.99127	
2.01569	
2.01569	
2.00958	
2.00043	
1.98822	
1.97296	
1.96686	
1.9577	
1.94855	
1.93787	
1.92566	
1.92719	
1.91956	
1.92261	
1.95313	
1.99432	
2.00195	
1.99585	
1.98822	
1.98059	
1.96991	
1.96991	
1.95923	
1.97144	
1.96228	
1.9577	
1.95313	
1.94244	
1.9455	
1.94702	
1.94855	
1.95618	
1.96686	
1.97296	
1.97601	
1.95923	
1.99432	
2.01263	
2.00958	
2.005	
1.98669	
1.95923	
1.93787	
1.93024	
1.92566	
1.92108	
1.91498	
1.91956	
1.91956	
1.93939	
1.97449	
1.98669	
2.01721	
2.01569	
2.00348	
1.98517	
1.97601	
1.9577	
1.95007	
1.94092	
1.93787	
1.92413	
1.93024	
1.93329	
1.93634	
1.94702	
1.95465	
1.95923	
1.97296	
1.97296	
1.98975	
1.99432	
1.99432	
1.98517	
1.97449	
1.96838	
1.97449	
1.98212	
1.98364	
1.97601	
1.98669	
1.98212	
1.97144	
1.96686	
1.96228	
1.96381	
1.96228	
1.96381	
1.97296	
1.98822	
2.005	
1.9928	
1.98517	
1.98822	
1.97601	
1.97906	
1.98212	
1.97449	
1.97144	
1.96686	
1.9516	
1.95313	
1.94244	
1.93939	
1.94092	
1.93176	
1.94092	
1.96075	
2.00348	
2.03857	
2.05383	
2.05536	
2.034	
1.9928	
1.97144	
1.9516	
1.93634	
1.93176	
1.93634	
1.93939	
1.98517	
2.00043	
2.01416	
2.005	
1.98364	
1.98822	
2.005	
2.005	
1.99432	
1.98212	
1.95923	
1.93939	
1.93329	
1.91193	
1.92261	
1.92566	
1.94855	
1.94092	
1.93787	
1.93939	
1.94855	
1.9577	
1.95923	
1.97449	
1.99432	
2.00348	
2.01721	
2.005	
1.98822	
1.97144	
1.96686	
1.9577	
1.94092	
1.93329	
1.94702	
1.94702	
1.98364	
2.02026	
2.03247	
2.03705	
2.06909	
2.07672	
2.05078	
2.07672	
2.07672	
2.07062	
2.08588	
2.06604	
2.02789	
2.005	
1.96381	
1.93634	
1.90125	
1.90125	
1.92108	
1.94397	
1.94092	
1.91803	
1.9043	
1.88599	
1.88141	
1.88599	
1.89056	
1.91498	
1.92871	
1.94092	
1.97144	
2.00348	
2.01263	
2.00348	
1.99585	
1.99127	
1.97601	
1.98212	
1.97296	
1.95007	
1.93176	
1.93024	
1.92108	
1.94244	
1.95007	
1.95923	
1.96381	
1.97296	
1.96838	
1.97144	
1.98059	
1.98059	
1.96838	
1.96228	
1.96838	
1.97296	
1.98669	
2.00043	
2.005	
1.99127	
1.97906	
1.95618	
1.94092	
1.92871	
1.92108	
1.93024	
1.94702	
1.97144	
1.99432	
1.99585	
1.98975	
1.98669	
1.98212	
1.96228	
1.96228	
1.9577	
1.95313	
1.9455	
1.94397	
1.93939	
1.9516	
2.00195	
2.00195	
1.99127	
1.98975	
1.98059	
1.97449	
1.95923	
1.95618	
1.95618	
1.96991	
1.98669	
2.00958	
1.99432	
1.98059	
1.96228	
1.95007	
1.94397	
1.95465	
1.95923	
1.95313	
1.92871	
1.91498	
1.9165	
1.92871	
1.92871	
1.9455	
1.95923	
1.97296	
1.97296	
1.98364	
1.99432	
2.00348	
1.99432	
1.99127	
1.98212	
1.96228	
1.94397	
1.93939	
1.91956	
1.91803	
1.92413	
1.92108	
1.92108	
1.94092	
1.95313	
1.9577	
1.97754	
1.98822	
1.99585	
1.98517	
1.97906	
1.97449	
1.96381	
1.96686	
1.95313	
1.9577	
1.9577	
1.95007	
1.94244	
1.93329	
1.92413	
1.92261	
1.93939	
1.9455	
1.9455	
1.95618	
1.97906	
1.97906	
2.00195	
2.01569	
2.01111	
2.00195	
1.98975	
1.97754	
1.98059	
1.97754	
1.95313	
1.94092	
1.94397	
1.95007	
1.94244	
1.95313	
1.96838	
1.98059	
1.9928	
2.02789	
2.02026	
2.005	
1.99585	
1.98364	
1.98517	
1.97296	
1.95313	
1.95007	
1.94702	
1.9516	
1.9455	
1.95465	
1.94855	
1.94397	
1.93176	
1.93787	
1.93176	
1.9165	
1.91345	
1.92413	
1.95465	
1.96381	
1.96991	
1.9577	
1.94702	
1.93939	
1.94092	
1.93634	
1.93329	
1.93939	
1.94702	
1.9516	
1.94244	
1.94244	
1.94397	
1.95007	
1.95313	
1.94244	
1.95618	
1.96991	
1.97754	
1.98364	
1.98669	
2.00043	
2.0462	
2.07977	
2.08435	
2.06909	
2.034	
1.99127	
1.97449	
1.95618	
1.92566	
1.92413	
1.90735	
1.88904	
1.91193	
1.93024	
1.93176	
1.96228	
1.97601	
1.96991	
1.94855	
1.94397	
1.92566	
1.92566	
1.9165	
1.91803	
1.9104	
1.9043	
1.90125	
1.91345	
1.91803	
1.92413	
1.92413	
1.93329	
1.95007	
1.95313	
1.96075	
1.97296	
1.96228	
1.95923	
1.95923	
1.9577	
1.97601	
1.98364	
1.97449	
1.97296	
1.96381	
1.95923	
1.94855	
1.96075	
1.95313	
1.95923	
1.95313	
1.9455	
1.93939	
1.92719	
1.93939	
1.94244	
1.94855	
1.96991	
1.98212	
1.98669	
2.01111	
2.01263	
2.00806	
1.98975	
1.98059	
1.96381	
1.9577	
1.95923	
1.96228	
1.96686	
1.95923	
1.95618	
1.95923	
1.95618	
1.95007	
1.94702	
1.94092	
1.93634	
1.9577	
1.96686	
1.96228	
1.96991	
1.97601	
1.97296	
1.97296	
1.97449	
1.97906	
1.9928	
1.97601	
1.96686	
1.94702	
1.93787	
1.93024	
1.92719	
1.92108	
1.92261	
1.92719	
1.93024	
1.92871	
1.94855	
1.95313	
1.95313	
1.9516	
1.93329	
1.93787	
1.94092	
1.94702	
1.96838	
1.98975	
2.01111	
1.9989	
1.98822	
1.97906	
1.97906	
1.99585	
2.01111	
2.00195	
1.98517	
1.97601	
1.9516	
1.94092	
1.92871	
1.91803	
1.91193	
1.91345	
1.92261	
1.91956	
1.92566	
1.92719	
1.94702	
1.95313	
1.95313	
1.96075	
1.97449	
1.98212	
1.98364	
1.98517	
1.99585	
1.99432	
1.9989	
1.9928	
1.98669	
1.98059	
1.97449	
1.96686	
1.96991	
1.98669	
1.99127	
1.98517	
1.98975	
1.98517	
1.98059	
1.98212	
1.98822	
1.9928	
1.98975	
1.99432	
2.00043	
2.01416	
2.01263	
2.00653	
1.9928	
1.98517	
1.98059	
1.97601	
1.96991	
1.96381	
1.9516	
1.94244	
1.96228	
1.96838	
1.97906	
1.98669	
2.005	
2.01263	
2.00653	
1.99432	
1.9989	
1.98822	
1.98975	
1.98822	
2.00653	
2.02332	
2.02637	
2.02484	
2.00348	
1.98517	
1.98822	
1.98059	
1.98517	
1.99432	
1.97449	
1.94702	
1.94244	
1.92719	
1.93024	
1.97296	
1.99127	
2.00958	
2.02332	
2.02484	
2.02484	
2.01263	
2.005	
1.9928	
1.98364	
1.98212	
1.96838	
1.96228	
1.96075	
1.95465	
1.95007	
1.9577	
1.95923	
1.96075	
1.97449	
1.9928	
1.98975	
1.97906	
1.98059	
1.98822	
1.98517	
1.98059	
1.98059	
1.98212	
1.99585	
1.99585	
2.00043	
2.005	
2.00348	
2.005	
1.99585	
1.99585	
2.00195	
2.00348	
2.00653	
2.02026	
2.02332	
2.01263	
2.01263	
2.00806	
1.99432	
1.99585	
1.99432	
1.98822	
1.98059	
1.99127	
2.00043	
1.99432	
2.00195	
1.98364	
1.98364	
1.98212	
1.99127	
1.99432	
1.99432	
2.00806	
2.01721	
2.02332	
2.04773	
2.05536	
2.04468	
2.02637	
2.00958	
2.00348	
2.00653	
2.01263	
2.01416	
2.00043	
2.00958	
2.0462	
2.06757	
2.07367	
2.07062	
2.05841	
2.04163	
2.01263	
1.97144	
1.93939	
1.91345	
1.91345	
1.91803	
1.92566	
1.95465	
1.97449	
2.00653	
2.02789	
2.03094	
2.01874	
2.01569	
2.00653	
1.99432	
1.97144	
1.97144	
1.95923	
1.96838	
1.98364	
1.98975	
1.98822	
2.00958	
2.00806	
2.00653	
1.9989	
2.00653	
2.005	
2.01874	
2.03247	
2.0462	
2.04773	
2.0401	
2.02484	
2.02484	
2.01569	
2.00195	
2.00195	
1.99432	
1.9928	
2.00958	
2.02179	
2.03552	
2.05383	
2.06451	
2.06604	
2.05841	
2.0462	
2.02484	
2.01111	
2.01111	
2.005	
2.00348	
1.99585	
1.98975	
1.98822	
1.97449	
1.96228	
1.96991	
1.97296	
1.98517	
2.01416	
2.02026	
2.00653	
2.00195	
1.9928	
2.00043	
2.00653	
1.99127	
2.00043	
2.05078	
2.05231	
2.04468	
2.03247	
2.02332	
2.0401	
2.02789	
2.02026	
2.01263	
1.9989	
1.98517	
1.98364	
1.97906	
1.97754	
1.98822	
2.00653	
2.00806	
2.02789	
2.03247	
2.02637	
2.03552	
2.034	
2.02789	
2.00348	
1.98517	
1.96686	
1.96991	
1.96686	
1.96228	
1.96381	
1.97144	
1.96991	
1.98669	
1.98669	
1.98822	
2.00195	
2.00958	
2.00806	
2.005	
2.00653	
2.005	
2.00043	
2.01721	
2.02789	
2.02179	
2.01721	
2.01111	
2.00653	
1.9989	
2.00195	
1.99432	
2.00043	
1.9989	
1.99585	
1.9928	
2.00653	
2.01874	
2.02484	
2.02026	
2.02179	
2.02179	
2.02026	
2.01416	
1.99585	
1.98517	
1.97449	
1.97296	
1.97906	
1.98364	
1.98822	
1.99432	
2.00043	
2.00348	
2.03705	
2.04773	
2.04315	
2.04163	
2.03552	
2.02332	
2.01416	
2.02026	
2.01874	
2.00806	
2.00348	
1.98975	
1.98212	
1.98212	
1.98669	
1.98975	
1.98975	
1.99432	
1.99585	
2.005	
2.005	
2.02789	
2.04163	
2.0462	
2.06604	
2.08282	
2.09503	
2.08893	
2.06909	
2.05383	
2.01263	
1.98059	
1.9516	
1.93329	
1.93329	
1.94092	
1.95313	
1.9577	
1.96838	
1.99127	
1.99432	
1.98975	
1.98364	
2.00043	
2.01721	
2.03094	
2.034	
2.03552	
2.02179	
2.02179	
2.01569	
2.01416	
2.01263	
2.00653	
2.01111	
2.01874	
2.03705	
2.04773	
2.05078	
2.04163	
2.03247	
2.01111	
1.99585	
1.96991	
1.9577	
1.9577	
1.96381	
1.96686	
1.96686	
1.97449	
1.98059	
1.99127	
1.99432	
2.00043	
2.00958	
2.00958	
2.00348	
2.00043	
1.98822	
1.98822	
1.98975	
2.00958	
2.01874	
2.02484	
2.03857	
2.02789	
2.02637	
2.01721	
2.00348	
1.99432	
2.01416	
2.01111	
2.00653	
1.9989	
1.98517	
1.97601	
1.98059	
1.98212	
1.98059	
1.98364	
1.98517	
1.99585	
2.00043	
2.00348	
2.01874	
2.02179	
2.02484	
2.02637	
2.02179	
2.034	
2.02179	
2.02332	
2.03094	
2.034	
2.03094	
2.02332	
2.05078	
2.05231	
2.03705	
2.02789	
2.02026	
2.01874	
2.005	
1.98669	
1.97296	
1.96991	
1.98517	
2.02179	
2.03552	
2.03705	
2.04315	
2.04163	
2.034	
2.02637	
2.01721	
1.98822	
1.96991	
1.95618	
1.93787	
1.9455	
1.95465	
1.97601	
1.98975	
1.99585	
2.00806	
2.00653	
2.00806	
2.02179	
2.02637	
2.03705	
2.02637	
2.02332	
2.02789	
2.02026	
2.00653	
2.00653	
1.9928	
1.9928	
1.9928	
2.00043	
2.00043	
2.00043	
1.9989	
2.00958	
2.01569	
2.00348	
2.00806	
2.00653	
2.00348	
2.005	
2.00348	
2.005	
2.01416	
2.01263	
2.00806	
2.00348	
2.00195	
2.00195	
2.00958	
2.01569	
2.01721	
2.01416	
2.01111	
2.00348	
2.02332	
2.02789	
2.02637	
2.03094	
2.01874	
2.01111	
1.9989	
1.99432	
1.99585	
1.99127	
1.98669	
1.98364	
1.98059	
1.97906	
1.98669	
1.99127	
2.00348	
2.01111	
2.01111	
2.00958	
2.01111	
2.01569	
2.01416	
2.01569	
2.005	
1.99127	
1.9928	
2.00043	
1.99432	
2.02179	
2.0462	
2.04773	
2.04163	
2.034	
2.04773	
2.05078	
2.06299	
2.05383	
2.02484	
2.00043	
1.98059	
1.97144	
1.96838	
1.97296	
1.97601	
1.97754	
1.96686	
1.96228	
1.96838	
1.98212	
2.00348	
2.00958	
2.01416	
2.02789	
2.02332	
2.03247	
2.01721	
2.00806	
2.00653	
1.98212	
1.99585	
1.99585	
2.00043	
1.99585	
1.99432	
1.98212	
1.97601	
1.96686	
1.96075	
1.96381	
1.97296	
1.98975	
2.01416	
2.02026	
2.02026	
2.03247	
2.02789	
2.01569	
2.00195	
1.9989	
1.9928	
1.98517	
1.97754	
1.97449	
1.96991	
1.97754	
1.96838	
1.97144	
1.97449	
1.96686	
1.97144	
1.97144	
1.97601	
1.98212	
1.9928	
2.005	
2.00348	
2.00958	
2.02332	
2.02789	
2.02332	
2.01721	
2.01263	
2.01263	
2.01416	
2.01569	
2.01111	
1.9989	
1.9928	
1.98822	
1.99127	
1.9989	
2.01111	
1.9928	
1.98669	
1.98517	
1.99127	
1.9928	
1.99585	
2.01569	
2.03705	
2.03857	
2.0462	
2.02789	
2.00348	
1.98517	
1.96075	
1.95923	
1.96838	
1.98059	
1.98517	
1.97906	
1.97449	
1.97144	
1.98975	
1.98517	
1.97449	
1.95923	
1.9577	
1.97144	
1.97754	
1.98822	
2.00348	
1.9989	
1.98517	
1.98212	
1.9928	
2.00653	
2.00806	
2.01416	
2.01721	
2.02332	
2.01416	
2.00195	
2.00195	
2.00195	
2.00195	
2.01569	
2.01263	
1.99585	
1.99127	
1.9928	
2.00043	
1.99432	
1.98975	
2.01874	
2.00806	
2.00043	
1.98517	
1.98669	
1.98364	
1.97754	
1.98364	
1.9928	
1.99585	
2.00195	
1.9989	
2.00043	
1.99585	
2.00043	
2.00195	
2.00958	
2.01263	
2.01721	
2.01111	
2.00806	
2.00195	
1.98975	
1.98364	
1.98364	
1.98212	
1.98517	
1.9989	
2.01569	
2.01111	
2.00653	
2.01263	
2.00958	
2.00653	
2.00653	
2.00653	
2.005	
2.005	
2.00653	
2.02026	
2.01874	
2.00958	
2.00348	
1.9989	
1.98517	
1.98364	
1.99127	
2.005	
2.005	
1.99432	
1.99585	
2.01263	
2.01721	
2.01111	
2.005	
1.9928	
2.00195	
1.98364	
1.97144	
1.95618	
1.96075	
1.96228	
1.9577	
1.97754	
1.98364	
1.99432	
2.00653	
2.00958	
2.01569	
2.02789	
2.0401	
2.04315	
2.0401	
2.0401	
2.02789	
2.01874	
2.00348	
1.98822	
1.96991	
1.95313	
1.95618	
1.9577	
1.96838	
1.98059	
1.98212	
1.98517	
1.9989	
2.00653	
2.005	
1.99432	
1.99432	
2.00043	
2.00195	
1.99432	
1.9989	
2.00195	
2.00195	
2.01721	
2.03094	
2.03857	
2.07214	
2.07672	
2.06451	
2.05231	
2.03094	
2.01416	
1.99432	
1.98975	
1.97906	
1.96686	
1.94855	
1.9455	
1.95313	
1.96991	
1.97296	
1.98212	
1.98212	
2.005	
2.01874	
2.00806	
2.00348	
1.9989	
1.9989	
2.00653	
2.00195	
1.99585	
1.99127	
2.01263	
2.01416	
2.01263	
2.00958	
1.99432	
1.98059	
1.96686	
1.97144	
1.97296	
1.98517	
1.97906	
1.98517	
1.97906	
1.99127	
2.02484	
2.03094	
2.03094	
2.02026	
2.02179	
2.01569	
2.02179	
2.02332	
2.02026	
2.01416	
2.00043	
1.99127	
1.98212	
1.97449	
1.97449	
1.97144	
1.96991	
1.98364	
1.97449	
1.97144	
1.96838	
1.97906	
1.98364	
1.98822	
1.99585	
2.00653	
2.01263	
2.00958	
2.02484	
2.0462	
2.04163	
2.05383	
2.04468	
2.02637	
2.00958	
2.00653	
1.98822	
1.98975	
1.98669	
1.9989	
2.01111	
2.00653	
2.005	
2.005	
2.00806	
2.00806	
2.01416	
2.01111	
2.01416	
1.9989	
1.9928	
1.98212	
1.9989	
2.00195	
2.02789	
2.02332	
2.03552	
2.034	
2.02637	
2.0401	
2.02484	
2.01416	
2.00806	
1.99127	
1.98059	
1.98517	
1.98059	
1.97601	
1.97906	
1.98212	
1.98059	
1.97296	
1.97449	
1.98669	
1.99432	
2.00806	
2.02332	
2.03094	
2.01721	
2.01416	
2.01263	
1.99127	
1.97144	
1.96228	
1.97906	
2.00043	
2.02789	
2.02789	
2.01874	
2.01263	
2.00043	
1.99127	
1.9989	
1.99432	
1.98822	
1.98059	
1.97601	
1.97906	
1.96686	
1.96686	
1.95923	
1.96228	
1.96991	
1.98975	
2.00195	
2.00043	
2.00043	
1.99585	
1.99585	
1.9928	
2.00043	
1.9989	
1.98822	
1.99585	
2.00195	
2.02026	
2.01569	
2.02179	
2.02026	
2.01721	
2.01111	
2.00958	
2.00043	
2.00043	
1.99127	
1.98517	
1.98059	
2.00806	
2.07214	
2.09808	
2.08282	
2.07214	
2.05688	
2.01874	
2.00958	
1.98059	
1.95007	
1.9455	
1.92108	
1.93939	
2.01874	
2.10114	
2.1759	
2.19727	
2.19421	
2.15302	
2.13928	
2.11792	
2.0752	
2.04315	
2.034	
2.00958	
2.00653	
2.00348	
1.98059	
1.96228	
1.93329	
1.92261	
1.91193	
1.9043	
1.89667	
1.89819	
1.89667	
1.90582	
1.94092	
1.9577	
1.96381	
1.96991	
1.96381	
1.95313	
1.96686	
1.96075	
1.9577	
1.94855	
1.93329	
1.93024	
1.93787	
1.97601	
2.01263	
2.02789	
2.02484	
2.00653	
2.00043	
2.005	
2.00195	
1.99585	
2.02026	
2.02332	
2.01263	
2.00043	
1.98975	
1.96228	
1.93634	
1.92566	
1.92413	
1.94092	
1.97296	
1.98212	
1.99585	
2.01416	
2.02637	
2.02484	
2.01874	
2.00806	
1.9928	
1.98669	
1.98517	
1.97754	
1.97601	
1.97601	
1.98669	
1.98975	
1.98517	
2.01874	
2.04773	
2.05688	
2.0462	
2.05078	
2.03705	
2.02789	
2.02637	
2.02179	
2.005	
1.9928	
2.00653	
2.01111	
2.01874	
2.01874	
2.01569	
2.005	
2.01111	
2.00958	
2.00653	
1.9928	
1.98975	
2.02026	
2.04773	
2.03857	
2.02637	
2.03247	
2.034	
2.03094	
2.02789	
2.02484	
2.01874	
2.00348	
1.99432	
1.9928	
1.9928	
1.99585	
2.00653	
2.00958	
2.01263	
2.01874	
2.03247	
2.05994	
2.08588	
2.08893	
2.06604	
2.08282	
2.0752	
2.06757	
2.03552	
2.00043	
1.98669	
1.99585	
2.01111	
2.04163	
2.0462	
2.06299	
2.05078	
2.04468	
2.01263	
1.98059	
1.99585	
1.9989	
2.00195	
2.01416	
2.00806	
1.99127	
1.97296	
2.02637	
2.02332	
1.98059	
1.95465	
1.95313	
2.00195	
2.03094	
2.09808	
2.15302	
2.16675	
2.13928	
2.08435	
2.03552	
1.9989	
1.96991	
1.96686	
1.98212	
1.98822	
2.00043	
1.97296	
1.96381	
1.98364	
1.98975	
1.9989	
2.02179	
2.034	
2.00348	
1.99585	
2.005	
2.00043	
1.98517	
2.01111	
1.99432	
2.02179	
2.03705	
2.05841	
2.06757	
2.06757	
2.06451	
2.0401	
2.03247	
2.005	
1.96075	
1.9577	
1.94092	
1.94397	
1.96075	
1.96381	
1.98822	
2.005	
2.00806	
2.00043	
1.9928	
2.005	
2.00195	
2.01111	
2.01416	
2.01569	
2.00653	
2.00806	
2.01263	
2.01111	
2.01263	
2.01111	
2.01569	
2.01569	
2.05231	
2.06757	
2.07672	
2.0752	
2.05841	
2.05383	
2.05383	
2.05994	
2.0462	
2.03247	
2.02637	
2.01569	
1.9928	
1.98975	
1.98822	
1.98669	
1.98364	
1.98364	
1.98517	
1.99127	
2.00043	
1.98822	
1.98059	
1.97296	
1.9989	
2.03857	
2.06909	
2.0874	
2.09045	
2.06757	
2.04773	
2.02179	
2.01416	
2.005	
2.02179	
2.04468	
2.0462	
2.02789	
2.02026	
2.03094	
2.03094	
2.02637	
2.02179	
2.03247	
2.03705	
2.07672	
2.05841	
2.04926	
2.03552	
2.00958	
1.99127	
1.97601	
1.97601	
1.97144	
1.9516	
1.93939	
1.95313	
1.96381	
1.97601	
1.9928	
2.00348	
2.00958	
2.02179	
2.034	
2.02484	
2.02026	
2.01416	
2.01416	
2.02026	
2.02332	
2.02179	
2.00806	
1.9928	
1.97906	
1.98822	
1.9928	
1.9989	
2.01263	
2.01721	
2.02332	
2.02484	
2.02484	
2.02332	
2.01874	
2.01874	
2.02484	
2.02484	
2.03247	
2.03552	
2.02637	
2.02332	
2.01263	
2.01263	
2.01569	
2.01569	
2.01111	
2.01111	
2.00958	
2.01111	
2.00195	
2.00195	
1.9989	
1.9989	
2.00195	
2.00348	
2.0813	
2.09656	
2.09808	
2.10114	
2.12708	
2.11639	
2.11487	
2.11029	
2.09351	
2.07977	
2.05688	
2.05231	
2.05078	
2.06909	
2.05383	
2.04315	
2.02179	
2.00653	
2.04163	
2.06451	
2.04315	
2.02789	
2.01416	
2.01263	
2.02332	
2.02484	
2.00806	
1.99127	
1.99585	
1.98669	
1.98364	
1.97906	
1.96381	
1.94397	
1.93024	
1.9165	
1.90582	
1.9104	
1.92108	
1.93787	
1.96075	
2.00958	
2.02332	
2.01874	
2.01569	
2.01569	
2.01111	
2.03247	
2.03552	
2.04773	
2.0401	
2.03705	
2.03247	
2.03247	
2.03094	
2.03857	
2.02637	
2.03247	
2.07062	
2.06604	
2.05688	
2.04468	
2.034	
2.02179	
2.00958	
1.99432	
1.98212	
1.97144	
1.97144	
1.97754	
1.98212	
1.99127	
2.005	
2.01416	
2.01874	
2.02332	
2.03247	
2.04163	
2.04315	
2.04773	
2.03857	
2.04315	
2.04163	
2.04315	
2.03247	
2.05536	
2.04163	
2.02637	
2.03705	
2.03705	
2.02332	
2.01721	
2.01721	
2.005	
1.98822	
1.98669	
2.00195	
2.00806	
2.02332	
2.0462	
2.05536	
2.06909	
2.05841	
2.05841	
2.05688	
2.08588	
2.07977	
2.07367	
2.06909	
2.04926	
2.02484	
2.01111	
2.00653	
2.05536	
2.06451	
2.04926	
2.04163	
2.03552	
2.02026	
2.00806	
2.03094	
2.12555	
2.14233	
2.10114	
2.10724	
2.09351	
2.07214	
2.06451	
2.07977	
2.0752	
2.05383	
2.01111	
1.96381	
1.92719	
1.90887	
1.9165	
1.94244	
1.97449	
1.98822	
1.99127	
1.98364	
1.97601	
1.97906	
1.98975	
2.00806	
2.02026	
2.02026	
2.02026	
2.00958	
2.01111	
2.01263	
2.01416	
2.01874	
2.01416	
2.00958	
2.01263	
2.02179	
2.0401	
2.04773	
2.04315	
2.034	
2.04773	
2.06757	
2.07062	
2.09351	
2.10114	
2.08282	
2.05536	
2.03552	
2.01416	
1.9928	
1.98364	
1.98212	
1.97754	
1.98669	
1.9989	
2.00653	
2.01111	
2.00958	
2.01416	
2.03552	
2.04315	
2.05383	
2.05841	
2.06299	
2.05688	
2.03552	
2.01416	
2.01111	
2.00806	
2.01874	
2.04315	
2.10571	
2.12708	
2.14233	
2.17133	
2.16064	
2.13013	
2.09351	
2.05231	
1.9989	
1.95618	
1.92871	
1.93176	
1.93329	
1.93176	
1.95007	
1.98822	
2.02484	
2.034	
2.03247	
2.02179	
2.00958	
1.98822	
1.99127	
2.00348	
1.99585	
2.00043	
2.02637	
2.034	
2.03094	
2.02789	
2.02026	
2.01569	
2.02332	
2.02637	
2.01111	
1.9989	
2.005	
2.005	
2.02789	
2.02637	
2.06604	
2.10571	
2.10571	
2.08893	
2.05994	
2.04773	
2.02484	
1.9989	
1.98364	
1.96686	
1.95618	
1.95313	
1.95313	
1.95313	
1.95923	
1.98517	
2.01111	
2.03705	
2.03094	
2.04773	
2.04773	
2.04468	
2.05688	
2.10876	
2.09503	
2.07825	
2.07367	
2.06757	
2.06299	
2.07214	
2.0813	
2.07062	
2.04926	
2.01569	
1.98212	
1.98364	
1.99585	
2.01263	
2.05841	
2.08282	
2.0813	
2.05841	
2.03094	
2.02789	
2.03705	
2.03705	
2.04926	
2.05383	
2.04468	
2.01263	
1.99127	
1.98364	
1.98364	
1.98364	
1.98669	
1.98364	
1.97906	
1.97296	
1.96075	
1.95007	
1.94092	
1.94855	
1.95313	
1.96686	
1.98669	
1.99585	
2.00195	
2.01111	
2.01416	
2.00653	
2.01263	
2.03705	
2.04468	
2.06604	
2.0874	
2.07367	
2.07825	
2.04926	
2.01721	
1.98212	
1.98975	
1.97296	
1.94855	
1.93329	
1.93176	
1.93634	
1.96991	
1.97449	
1.96838	
2.00806	
2.02332	
2.034	
2.02332	
2.01416	
2.00806	
2.01721	
2.02789	
2.034	
2.03247	
2.01874	
2.00806	
1.99127	
1.98975	
1.9928	
1.98822	
1.9928	
1.99432	
2.00043	
1.99585	
2.005	
2.02637	
2.05536	
2.04468	
2.04315	
2.03552	
2.02484	
2.01569	
1.99585	
1.97906	
1.97296	
1.97144	
1.96686	
1.96838	
1.98364	
2.00043	
2.02332	
2.03247	
2.04773	
2.05994	
2.05231	
2.04468	
2.03552	
2.034	
2.034	
2.03247	
2.02179	
2.02026	
2.01111	
1.99432	
1.98669	
1.97296	
2.00806	
2.02179	
2.01721	
2.02026	
2.03247	
2.03705	
2.03094	
2.05383	
2.07214	
2.09961	
2.0813	
2.06451	
2.02637	
1.99585	
1.97754	
1.96075	
1.95618	
1.96228	
1.96838	
1.95313	
1.95007	
1.94855	
1.94397	
1.93939	
1.94092	
1.95007	
1.95007	
1.97754	
1.99585	
1.9989	
1.99127	
2.00348	
2.02484	
2.07825	
2.09351	
2.08893	
2.09656	
2.09961	
2.08435	
2.06909	
2.05078	
2.02637	
2.0401	
2.02179	
1.98975	
1.97906	
1.97754	
1.97144	
1.96838	
1.95007	
1.9455	
1.95007	
1.96075	
1.9455	
1.94244	
1.94855	
1.9577	
1.97449	
1.97906	
1.98364	
1.99127	
2.00195	
2.04315	
2.09503	
2.11792	
2.14386	
2.12555	
2.1225	
2.1225	
2.11182	
2.07977	
2.04315	
1.98822	
1.94244	
1.91498	
1.88904	
1.88446	
1.89819	
1.91956	
1.95923	
1.99127	
2.00653	
2.03094	
2.02026	
2.005	
1.9989	
1.9928	
1.98975	
1.97449	
1.97144	
1.97449	
1.97449	
1.98364	
1.97906	
1.98517	
1.98517	
1.98822	
1.98975	
2.005	
2.01416	
2.02179	
2.03094	
2.02637	
2.03094	
2.02789	
2.03705	
2.03552	
2.02789	
2.01111	
1.9928	
1.97906	
1.97449	
1.98212	
1.98364	
1.98669	
1.9928	
1.99127	
1.99127	
2.00958	
2.00806	
2.05688	
2.07672	
2.06757	
2.034	
2.01263	
2.00195	
2.00958	
2.05231	
2.08893	
2.09656	
2.07825	
2.04163	
2.02484	
1.98822	
1.98059	
1.97906	
1.9989	
2.01263	
2.01721	
2.01416	
2.00043	
1.98212	
1.97906	
1.99127	
2.02026	
2.01721	
2.00653	
1.99432	
1.9928	
1.99127	
1.97906	
2.005	
2.04468	
2.06757	
2.06909	
2.05536	
2.04773	
2.02026	
1.99585	
1.97449	
1.95007	
1.92413	
1.92261	
1.93329	
1.94855	
1.96838	
1.97754	
1.98822	
1.9928	
1.9928	
1.99585	
2.00043	
2.005	
2.00806	
2.01721	
2.00958	
2.00195	
2.00195	
2.03552	
2.04315	
2.03705	
2.06757	
2.09656	
2.10266	
2.14539	
2.14996	
2.13165	
2.08893	
2.03857	
2.00195	
1.96228	
1.93634	
1.92871	
1.91956	
1.9043	
1.91193	
1.92566	
1.93176	
1.96075	
1.96838	
1.96686	
1.97296	
1.99585	
2.00348	
2.01263	
2.01263	
2.01416	
2.00195	
1.99127	
1.99432	
1.99432	
2.00195	
2.00653	
2.01569	
2.01874	
2.01721	
2.01416	
2.02332	
2.04315	
2.05688	
2.04773	
2.0462	
2.03247	
2.00806	
1.99127	
1.98517	
1.97449	
1.98669	
2.00806	
2.02484	
2.02484	
2.02332	
2.03705	
2.05078	
2.0462	
2.04468	
2.04773	
2.03857	
2.01263	
1.9989	
1.98822	
1.97296	
1.97449	
1.97296	
1.98059	
2.05536	
2.06604	
2.0462	
2.03247	
2.01263	
2.01111	
1.9989	
2.01111	
2.02332	
2.01263	
1.99432	
1.98669	
1.98364	
1.98822	
1.9928	
1.9989	
2.01263	
2.00653	
2.01263	
2.01416	
2.01416	
2.01263	
2.01416	
2.01416	
2.05994	
2.06909	
2.04926	
2.03094	
2.00043	
1.97449	
1.94702	
1.93024	
1.9043	
1.88904	
1.88293	
1.89972	
1.89972	
1.91193	
1.93939	
1.95313	
1.97906	
1.99127	
2.005	
2.01721	
2.01569	
2.00958	
2.00958	
2.01569	
2.02026	
2.02026	
2.02179	
2.07062	
2.0752	
2.06909	
2.04773	
2.0462	
2.03094	
2.02179	
2.03552	
2.03552	
2.02332	
2.02332	
2.02789	
2.03247	
2.02484	
2.005	
1.98975	
1.97449	
1.96381	
1.95618	
1.95007	
1.9577	
1.97296	
1.96838	
1.96381	
1.96075	
1.96381	
1.97296	
1.98059	
1.98822	
1.98822	
1.98059	
1.97144	
1.96381	
1.96838	
1.96686	
1.96991	
1.96991	
1.96686	
1.97449	
1.97754	
1.98364	
1.98669	
1.98975	
1.98669	
1.98212	
1.98059	
1.98212	
1.98059	
2.01569	
2.04926	
2.06451	
2.05383	
2.04468	
2.04468	
2.02179	
2.00043	
1.98059	
1.96991	
1.98517	
1.98822	
1.98517	
1.97601	
1.97296	
1.9928	
2.01569	
2.005	
2.00653	
2.00806	
2.00958	
1.9928	
1.97296	
1.96228	
1.95313	
1.93634	
1.93329	
1.9455	
1.96228	
1.97144	
1.97449	
1.97601	
1.97601	
1.97906	
1.97906	
1.98822	
1.99432	
1.99585	
1.9989	
2.00653	
2.00195	
2.00195	
1.99127	
1.99432	
2.01416	
2.01721	
2.04468	
2.10114	
2.1225	
2.09351	
2.05841	
2.03705	
2.01569	
2.01263	
2.00653	
1.9989	
1.98059	
1.9577	
2.00195	
2.03094	
2.02789	
2.01111	
1.98975	
1.98669	
1.97906	
1.96228	
1.94855	
1.93329	
1.92261	
1.91498	
1.91803	
1.91956	
1.93329	
1.9577	
1.97144	
1.96686	
1.96991	
1.97449	
1.97144	
1.96991	
1.96381	
1.98669	
1.9989	
2.01263	
2.02484	
2.03552	
2.04315	
2.03247	
2.01416	
1.9928	
1.97754	
1.96838	
1.96838	
1.96228	
1.96838	
1.96838	
1.97296	
1.98212	
1.99127	
2.00043	
2.00958	
2.00806	
2.00806	
1.99585	
2.00043	
2.00348	
2.01111	
2.01569	
2.02332	
2.01721	
2.00653	
2.00195	
2.04773	
2.07062	
2.0752	
2.10266	
2.09045	
2.08282	
2.08435	
2.09351	
2.07062	
2.034	
1.97906	
1.95465	
1.92413	
1.9165	
1.92108	
1.92261	
1.91803	
1.94244	
1.94855	
1.93176	
1.92719	
1.9455	
1.94855	
1.94702	
1.96075	
1.98517	
2.00348	
2.01263	
2.00348	
1.9928	
1.98212	
1.97906	
1.97754	
1.97906	
1.97906	
1.98212	
1.98212	
1.97296	
1.97296	
1.97296	
1.97601	
1.97906	
1.98212	
1.98975	
1.99585	
1.99127	
2.02332	
2.03247	
2.01721	
1.99432	
1.97601	
1.96686	
1.96381	
1.95618	
1.95007	
1.95465	
1.9577	
1.96991	
1.96991	
1.96381	
1.9577	
1.98669	
1.9989	
2.01263	
2.02026	
2.02637	
2.02484	
2.01721	
2.00195	
1.99432	
1.99127	
1.98212	
1.99127	
1.99585	
1.98975	
2.03705	
2.10571	
2.09808	
2.13776	
2.13013	
2.10724	
2.07977	
2.05841	
2.03857	
2.00958	
1.98059	
1.98975	
1.96838	
1.93024	
1.93024	
1.94702	
1.93329	
1.93634	
1.95465	
1.9516	
1.9577	
1.96838	
1.97601	
1.95618	
1.95007	
1.95313	
1.96838	
1.99127	
1.98822	
1.98059	
1.97754	
1.96686	
1.93939	
1.93939	
1.94397	
1.96075	
1.98517	
2.02789	
2.03857	
2.0401	
2.04163	
2.04163	
2.03094	
2.02179	
2.01263	
2.01416	
1.9989	
1.97906	
1.97144	
1.95007	
1.9455	
1.95465	
1.96686	
1.97296	
1.98364	
1.97906	
1.97296	
1.97144	
1.98059	
1.97601	
1.98975	
1.9989	
2.00043	
2.005	
2.00043	
1.98669	
1.97906	
1.97449	
1.96075	
1.95465	
1.96228	
1.96228	
1.97144	
1.97906	
1.99127	
1.99432	
1.99127	
1.98975	
1.98975	
2.005	
2.00806	
2.00958	
2.01721	
2.02179	
2.02332	
2.03247	
2.02789	
2.00653	
1.98822	
1.97906	
1.98212	
1.97449	
1.96228	
1.96075	
1.96228	
1.9577	
1.96838	
1.98364	
1.98364	
1.98669	
2.00653	
1.99432	
1.98669	
2.00195	
2.01111	
2.005	
1.98822	
1.98059	
1.97754	
1.98975	
2.005	
2.01263	
2.00348	
2.00348	
2.01721	
2.00348	
1.98975	
1.98364	
1.97449	
1.96075	
1.94397	
1.94244	
1.9516	
1.95313	
1.95618	
1.96075	
1.96838	
1.96686	
1.96838	
1.96381	
1.95465	
1.96838	
1.97601	
1.97296	
1.97296	
1.97296	
1.99585	
2.00195	
2.005	
2.00043	
2.00195	
2.01111	
2.00195	
1.98364	
1.97449	
1.97296	
1.96991	
1.97754	
2.00653	
2.02179	
2.01721	
2.04468	
2.07672	
2.05994	
2.01569	
1.97754	
1.96075	
1.95007	
1.95923	
1.97754	
1.98059	
1.96991	
1.95465	
1.94702	
1.93634	
1.93939	
1.95007	
1.97296	
1.99432	
1.98669	
1.97754	
1.98517	
1.98212	
1.98059	
1.96686	
1.95465	
1.9577	
1.95313	
1.94855	
1.94092	
1.94092	
1.95313	
1.94702	
1.94855	
1.94702	
1.94244	
1.94702	
1.95923	
1.98059	
1.99585	
1.9928	
1.99127	
1.98822	
1.98059	
2.005	
2.02179	
2.02026	
2.02484	
2.01111	
2.00806	
1.98212	
1.97449	
1.96838	
1.97449	
1.98975	
2.02789	
2.02332	
1.99585	
1.95618	
1.92261	
1.90125	
1.90735	
1.91803	
1.93024	
1.93787	
1.92413	
1.92566	
1.93024	
1.94702	
1.9455	
1.9516	
1.94855	
1.95465	
1.95465	
1.96686	
1.97754	
1.97754	
1.96838	
1.95465	
1.95007	
1.96228	
1.95923	
1.95618	
1.96686	
1.98212	
1.9928	
2.02789	
2.04926	
2.04315	
2.04163	
2.02637	
1.9989	
1.97449	
1.94092	
1.91345	
1.9043	
1.89209	
1.88599	
1.89514	
1.91193	
1.91956	
1.95313	
1.96838	
1.97449	
1.97601	
1.96838	
1.97601	
1.98212	
1.98059	
1.97449	
1.97449	
1.96838	
1.96075	
1.9516	
1.94855	
1.94702	
1.94855	
1.96381	
1.97601	
1.97754	
1.97754	
1.98517	
1.97906	
1.96228	
1.95465	
1.9516	
1.95007	
1.96381	
1.97144	
1.97144	
1.9577	
1.95923	
1.96838	
2.03247	
2.06451	
2.05994	
2.03247	
2.00043	
1.97906	
1.95923	
1.93634	
1.93024	
1.91193	
1.89819	
1.89056	
1.89056	
1.88751	
1.90735	
1.93024	
1.95465	
1.96838	
1.97906	
1.97449	
1.97754	
2.00806	
1.98059	
1.94397	
1.93634	
1.93634	
1.93939	
1.95465	
1.97449	
1.98975	
1.98517	
1.97449	
1.9516	
1.94397	
1.9516	
1.96075	
1.95923	
1.97754	
1.98364	
1.96991	
1.96228	
1.94855	
1.93634	
1.93024	
1.92719	
1.92566	
1.93176	
1.93024	
1.93024	
1.92719	
1.93176	
1.94092	
1.9455	
1.98212	
1.98364	
1.97449	
1.96075	
1.95618	
1.9577	
1.95923	
1.95313	
1.9455	
1.93176	
1.92719	
1.92566	
1.92871	
1.93787	
1.94092	
1.9455	
1.9455	
1.93176	
1.92261	
1.92719	
1.93787	
1.94092	
1.93939	
1.93634	
1.9928	
2.02179	
2.02026	
2.04315	
2.0462	
2.02789	
2.00958	
1.98975	
1.97144	
1.97601	
1.99585	
2.00653	
1.9928	
1.96228	
1.94397	
1.93787	
1.93176	
1.93787	
1.94244	
1.91956	
1.89972	
1.89209	
1.87836	
1.87378	
1.88751	
1.89667	
1.90887	
1.92108	
1.92871	
1.92566	
1.95465	
1.9577	
1.95007	
1.94397	
1.94244	
1.9516	
1.95465	
1.9577	
1.9577	
1.95923	
1.97906	
1.97906	
1.96686	
1.95465	
1.9455	
1.94092	
1.93176	
1.92108	
1.90735	
1.9043	
1.91956	
1.93176	
1.94397	
1.94702	
1.95007	
1.94855	
1.94397	
1.94702	
1.95923	
1.96381	
1.95923	
1.95007	
1.94244	
1.94702	
1.95618	
1.97906	
1.98059	
1.96228	
1.94855	
1.93329	
1.93787	
1.94702	
1.94397	
1.94397	
1.96381	
1.97296	
1.97296	
1.98669	
1.97754	
1.96991	
1.94855	
1.92413	
1.90125	
1.91498	
1.93329	
1.94855	
1.96075	
1.97601	
1.96075	
1.97296	
1.98517	
1.96075	
1.93939	
1.91803	
1.93024	
1.93787	
1.94092	
1.92108	
1.9104	
1.90582	
1.91193	
1.91803	
1.92871	
1.92871	
1.93634	
1.94702	
1.9516	
1.94702	
1.97906	
1.98212	
1.97449	
1.97296	
1.96991	
1.96075	
1.94397	
1.92566	
1.91193	
1.9104	
1.9104	
1.91956	
1.92261	
1.92261	
1.93329	
1.95923	
1.96075	
1.98517	
2.01111	
1.99432	
2.01416	
2.00958	
1.99432	
1.97906	
1.97754	
1.97144	
1.96838	
1.97906	
1.97449	
1.96686	
1.93176	
1.91345	
1.89819	
1.89667	
1.90735	
1.92413	
1.90887	
1.91193	
1.91345	
1.92566	
1.92566	
1.92566	
1.92719	
1.92108	
1.92108	
1.90887	
1.9104	
1.90125	
1.90125	
1.89972	
1.90887	
1.91498	
1.91956	
1.93634	
1.94855	
1.96075	
1.96991	
1.96838	
1.96075	
1.95618	
1.94702	
1.93329	
1.92413	
1.91498	
1.91498	
1.93329	
1.93634	
1.93787	
1.93939	
1.94397	
1.94702	
1.95618	
1.94092	
1.93024	
1.91193	
1.89972	
1.89514	
1.93634	
1.9577	
1.96075	
1.9516	
1.94702	
1.94855	
1.9516	
1.94855	
1.94092	
1.92566	
1.89972	
1.88293	
1.87225	
1.86157	
1.86615	
1.88751	
1.9043	
1.92413	
1.92566	
1.92413	
1.91803	
1.92566	
1.93787	
1.95313	
1.95313	
1.95618	
1.96075	
1.96686	
1.97144	
1.96991	
1.97144	
1.95465	
1.9455	
1.92719	
1.91803	
1.9165	
1.91345	
1.91193	
1.91956	
1.92261	
1.93787	
1.95465	
1.96838	
1.96228	
1.9577	
1.94397	
1.93176	
1.95313	
1.93329	
1.9165	
1.90735	
1.89819	
1.90735	
1.9165	
1.90735	
1.9165	
1.9165	
1.91803	
1.93787	
1.94244	
1.95465	
1.9516	
1.94092	
1.92871	
1.92413	
1.93024	
1.93329	
1.92719	
1.9043	
1.88293	
1.87531	
1.88293	
1.89667	
1.89972	
1.9104	
1.9043	
1.93634	
1.95618	
1.9577	
1.95313	
2.03552	
2.04926	
2.03705	
2.01111	
2.00653	
1.9989	
1.98059	
1.98059	
1.98364	
1.97296	
1.94397	
1.91345	
1.88599	
1.86005	
1.8692	
1.89209	
1.88293	
1.87531	
1.8631	
1.84937	
1.84021	
1.86157	
1.88446	
1.89056	
1.89209	
1.88751	
1.89209	
1.89056	
1.90582	
1.92719	
1.9455	
1.94397	
1.93787	
1.92108	
1.90735	
1.89056	
1.87225	
1.87225	
1.8631	
1.87378	
1.88293	
1.90582	
1.92871	
1.93024	
1.92413	
1.92413	
1.91498	
1.90887	
1.89362	
1.89209	
1.9043	
1.92261	
1.92719	
1.92871	
1.92413	
1.91193	
1.90887	
1.89972	
1.89362	
1.89209	
1.88446	
1.88599	
1.89819	
1.92566	
1.92871	
1.93634	
1.95618	
1.95923	
1.96075	
1.95313	
1.93329	
1.90887	
1.88599	
1.87988	
1.87683	
1.88446	
1.90125	
1.91498	
1.92413	
1.92719	
1.94244	
1.98212	
1.96686	
1.9516	
1.92108	
1.91803	
1.91345	
1.92413	
1.94092	
1.93939	
1.92108	
1.90582	
1.89056	
1.87988	
1.86462	
1.87225	
1.8692	
1.87531	
1.8692	
1.87225	
1.88599	
1.89056	
1.90125	
1.90735	
1.91803	
1.93024	
1.93634	
1.93634	
1.92719	
1.92261	
1.92566	
1.92413	
1.92566	
1.9455	
1.96381	
2.00806	
2.00806	
1.98822	
1.96838	
1.95313	
1.92413	
1.89819	
1.87988	
1.87531	
1.86005	
1.85547	
1.91193	
1.9455	
1.94855	
1.94855	
1.96991	
1.9989	
1.99585	
2.01263	
2.01569	
2.00958	
1.97601	
1.98364	
1.96075	
1.93634	
1.92413	
1.90125	
1.90735	
1.89819	
1.87988	
1.85089	
1.8631	
1.87378	
1.87988	
1.89819	
1.90887	
1.93634	
1.92871	
1.90125	
1.88904	
1.87683	
1.89667	
1.9104	
1.91956	
1.91345	
1.92261	
1.92413	
1.9165	
1.91345	
1.9043	
1.89667	
1.91803	
1.9104	
1.88751	
1.87378	
1.86768	
1.86462	
1.86768	
1.88751	
1.92566	
1.93176	
1.96075	
1.97296	
1.96686	
1.94702	
1.93939	
1.92413	
1.90125	
1.87683	
1.85242	
1.84631	
1.85242	
1.86462	
1.87531	
1.88293	
1.89056	
1.90735	
1.92871	
1.95007	
1.9516	
1.9455	
1.93787	
1.94092	
1.93329	
1.92719	
1.94244	
1.95007	
1.94855	
1.9516	
1.94855	
1.9455	
1.92871	
1.91193	
1.89667	
1.88599	
1.87988	
1.88293	
1.90735	
1.90582	
1.90735	
1.92719	
1.92566	
1.9165	
1.90582	
1.89667	
1.89362	
1.89972	
1.9165	
1.93024	
1.96991	
1.98364	
1.97601	
1.96381	
1.95007	
1.93939	
1.92108	
1.91498	
1.92719	
1.99432	
1.98059	
1.95618	
1.94092	
1.91193	
1.89362	
1.88904	
1.90582	
1.92566	
1.91345	
1.89514	
1.88141	
1.90887	
1.91956	
1.9165	
1.93176	
1.93939	
1.92719	
1.91956	
1.90735	
1.9104	
1.94702	
1.94702	
1.92413	
1.90125	
1.88599	
1.87378	
1.87225	
1.87531	
1.88293	
1.89056	
1.87836	
1.87225	
1.87531	
1.87683	
1.88293	
1.89667	
1.89972	
1.9104	
1.89972	
1.88751	
1.88751	
1.88141	
1.87225	
1.88293	
1.89362	
1.93329	
1.93939	
1.95313	
1.95465	
1.96381	
1.96228	
1.94244	
1.92719	
1.91345	
1.89819	
1.88904	
1.88293	
1.87225	
1.85699	
1.86615	
1.86768	
1.86615	
1.87836	
1.88751	
1.91498	
1.92871	
1.91956	
1.91345	
1.91498	
1.92413	
1.93329	
1.93939	
1.94092	
1.93634	
1.93329	
1.94397	
1.9455	
1.94092	
1.93939	
1.93329	
1.92566	
1.91803	
1.91498	
1.89972	
1.90582	
1.92261	
1.93024	
1.93176	
1.93939	
1.93939	
1.93939	
1.93787	
1.93787	
1.93329	
1.94855	
1.95007	
1.94702	
1.94092	
1.92871	
1.92108	
1.92108	
1.91345	
1.92108	
1.91193	
1.88904	
1.8631	
1.86005	
1.85089	
1.85242	
1.87225	
1.88446	
1.89056	
1.93024	
1.95618	
1.99585	
2.01111	
1.98669	
1.95618	
1.92413	
1.91956	
1.90582	
1.87988	
1.88446	
1.86768	
1.85242	
1.84631	
1.85242	
1.89209	
1.93024	
1.95618	
2.02637	
2.0401	
1.9989	
1.97601	
1.94397	
1.90735	
1.89819	
1.89819	
1.9165	
1.92719	
1.89819	
1.91498	
1.9165	
1.91345	
1.90735	
1.91193	
1.91193	
1.92871	
1.89819	
1.86005	
1.83105	
1.82953	
1.83716	
1.85394	
1.8692	
1.89667	
1.90582	
1.89056	
1.89056	
1.89667	
1.89362	
1.89819	
1.90125	
1.9043	
1.90735	
1.90125	
1.89056	
1.88751	
1.89056	
1.89362	
1.89514	
1.89514	
1.9043	
1.9104	
1.91498	
1.9165	
1.91956	
1.9165	
1.91193	
1.9104	
1.90582	
1.9043	
1.91345	
1.9516	
1.96686	
1.98059	
1.9989	
1.98517	
1.98975	
1.98059	
1.9928	
1.96381	
1.93024	
1.90125	
1.86462	
1.84631	
1.85089	
1.84021	
1.85852	
1.87378	
1.86615	
1.8631	
1.87988	
1.87836	
1.88293	
1.89362	
1.88599	
1.88446	
1.89972	
2.00653	
2.02484	
1.98975	
1.95618	
1.9577	
1.95618	
1.96991	
1.99432	
2.02026	
2.01416	
1.96381	
1.92566	
1.89056	
1.87378	
1.87225	
1.87531	
1.87988	
1.88293	
1.87225	
1.85242	
1.85089	
1.86005	
1.86462	
1.87836	
1.90887	
1.94092	
1.94397	
1.94092	
1.92871	
1.91498	
1.91803	
1.92566	
1.92871	
1.91345	
1.89514	
1.89056	
1.89209	
1.90125	
1.9043	
1.89972	
1.95465	
1.98669	
2.01111	
2.02332	
2.00348	
1.97449	
1.96228	
1.94397	
1.92566	
1.90735	
1.89514	
1.87988	
1.86157	
1.86005	
1.87225	
1.88751	
1.91498	
1.94855	
1.96381	
2.00043	
2.01569	
2.00043	
2.00806	
2.06451	
2.05994	
2.02789	
1.97296	
1.92261	
1.89819	
1.86157	
1.8631	
1.85394	
1.81427	
1.79291	
1.79749	
1.79138	
1.79749	
1.84174	
1.84937	
1.86005	
1.87531	
1.86462	
1.86462	
1.87836	
1.88293	
1.89972	
1.91498	
1.91498	
1.91345	
1.9104	
1.90582	
1.91193	
1.90887	
1.90887	
1.90887	
1.9104	
1.90887	
1.91345	
1.91498	
1.91498	
1.91803	
1.9165	
1.91803	
1.91956	
1.9165	
1.91498	
1.91956	
1.91956	
1.91345	
1.91345	
1.91193	
1.91498	
1.9104	
1.9104	
1.91345	
1.90582	
1.9104	
1.91498	
1.91193	
1.91345	
1.90887	
1.93634	
1.97754	
2.04315	
2.10266	
2.09656	
2.09351	
2.05536	
1.99432	
1.9516	
1.91193	
1.8692	
1.84326	
1.8219	
1.87531	
1.87378	
1.87683	
1.9928	
2.06451	
2.10571	
2.16064	
2.16522	
2.10114	
1.99585	
1.88293	
1.78223	
1.75323	
1.77002	
1.78833	
1.80969	
1.89209	
1.90735	
1.88599	
1.87378	
1.87836	
1.89819	
1.89056	
1.91498	
1.92566	
1.91345	
1.88599	
1.87378	
1.8631	
1.84937	
1.86005	
1.88599	
1.89514	
1.89972	
1.90735	
1.89514	
1.89667	
1.89667	
1.90125	
1.89972	
1.90582	
1.90582	
1.90887	
1.91193	
1.9104	
1.91193	
1.91345	
1.90887	
1.91193	
1.91193	
1.9165	
1.91498	
1.9165	
1.91803	
1.91803	
1.92261	
1.92108	
1.92108	
1.92413	
1.91956	
1.92108	
1.91956	
1.92108	
1.91345	
1.91498	
1.9165	
1.92413	
1.92108	
1.92566	
1.92261	
1.92413	
1.92413	
1.92261	
1.92413	
1.92413	
1.92261	
1.92108	
1.92719	
1.92108	
1.92566	
1.92261	
1.91956	
1.93024	
1.97296	
1.99127	
1.98822	
1.99432	
2.0462	
2.06604	
2.06909	
2.11487	
2.17133	
2.15454	
2.11029	
2.11182	
2.08282	
2.01721	
1.97296	
1.9165	
1.84937	
1.77765	
1.72577	
1.70746	
1.71814	
1.73798	
1.74561	
1.77765	
1.79443	
1.78833	
1.81427	
1.84631	
1.87683	
1.89209	
1.90582	
1.9165	
1.92871	
1.94244	
1.94397	
1.95313	
1.96991	
1.98822	
1.98669	
1.96838	
1.9577	
1.95313	
1.94092	
1.91345	
1.89667	
1.88904	
1.88293	
1.88293	
1.88751	
1.89209	
1.9043	
1.92719	
1.94397	
1.95618	
1.96075	
1.94855	
1.93787	
1.94092	
1.93939	
1.94244	
1.96686	
1.98975	
2.00653	
2.03094	
2.08893	
2.11792	
2.13165	
2.09503	
2.06604	
2.02179	
2.02332	
1.99127	
1.96991	
1.92719	
1.8692	
1.82953	
1.83105	
1.84631	
1.88904	
1.9043	
1.89514	
1.9043	
1.88599	
1.87531	
1.85394	
1.85242	
1.84174	
1.81885	
1.81732	
1.84021	
1.86157	
1.87531	
1.89362	
1.90582	
1.90735	
1.91193	
1.93939	
1.9455	
1.95007	
1.95313	
1.95618	
1.9455	
2.02026	
2.14233	
2.20337	
2.17743	
2.13165	
2.05841	
1.97296	
1.9104	
1.93329	
2.02179	
2.0874	
2.14233	
2.18048	
2.16217	
2.10114	
2.04926	
2.00195	
1.96838	
1.90735	
1.83411	
1.80054	
1.77307	
1.75934	
1.85852	
1.95618	
2.02026	
2.05383	
2.02789	
1.98517	
1.93939	
1.86615	
1.79443	
1.75323	
1.74561	
1.75323	
1.78375	
1.83258	
1.83258	
1.8219	
1.82953	
1.84326	
1.8692	
1.92108	
1.93329	
1.93787	
1.93024	
1.91345	
1.89819	
1.9104	
1.9928	
2.01263	
2.02026	
2.02179	
2.04315	
2.02179	
1.98669	
1.9577	
1.90887	
1.86157	
1.85852	
1.88446	
1.90125	
1.93634	
1.93939	
1.96838	
2.05231	
2.41699	
2.58179	
2.71301	
2.66571	
2.58942	
2.50397	
2.43683	
2.50244	
2.42004	
2.31628	
2.18201	
2.07062	
1.95618	
1.83563	
1.77002	
1.75934	
1.71051	
1.63574	
1.58997	
1.63574	
1.75171	
1.97449	
2.03094	
2.05231	
1.98669	
1.86615	
1.78223	
1.72729	
1.76239	
1.82343	
1.89209	
1.89514	
1.89056	
1.92413	
1.9104	
1.89209	
1.92261	
1.96991	
1.96991	
2.1286	
2.22168	
2.13928	
2.00195	
1.87378	
1.75171	
1.65558	
1.6098	
1.66016	
1.68915	
1.70441	
1.72424	
1.76086	
1.84021	
1.91193	
1.92871	
1.95923	
2.05078	
2.0874	
2.18964	
2.33154	
2.39258	
2.6062	
2.57568	
2.47955	
2.3941	
2.27356	
2.1286	
2.05383	
2.07062	
2.28424	
2.48566	
2.54822	
2.45972	
2.28577	
2.19116	
2.14996	
2.29492	
2.33765	
2.29645	
2.22321	
2.10571	
2.06451	
2.45209	
2.53906	
2.39105	
2.22626	
2.16217	
2.07062	
2.19574	
2.33002	
2.24457	
2.02179	
1.7868	
1.64185	
1.77002	
1.66168	
1.53351	
1.4679	
1.43738	
1.58234	
1.70288	
1.84784	
1.9928	
2.06299	
2.19269	
2.2583	
2.33459	
2.29034	
2.3407	
2.36969	
2.32239	
2.19879	
2.20795	
2.26746	
2.21252	
2.06604	
1.91345	
1.80817	
1.75171	
1.67847	
1.63422	
1.58997	
1.55945	
1.52893	
1.50757	
1.55029	
1.54114	
1.55029	
1.6449	
1.9455	
2.22473	
2.51617	
3.04565	
3.21045	
3.10211	
2.99835	
2.742	
2.4704	
2.29492	
2.1637	
1.97754	
1.72424	
1.5274	
1.39618	
1.43433	
1.53503	
1.7807	
2.19879	
2.44293	
2.45819	
2.42462	
2.4292	
2.49786	
2.4826	
2.47803	
2.79694	
2.99683	
2.98157	
2.84119	
2.79694	
2.73895	
2.62146	
2.48413	
2.20947	
1.90735	
1.65253	
1.38092	
1.28021	
1.50757	
1.60675	
1.58691	
1.50299	
1.57928	
1.57166	
1.51978	
1.45416	
1.42517	
1.52893	
1.62201	
1.72119	
1.80817	
1.87988	
1.9104	
2.19269	
2.24152	
2.17133	
2.08435	
2.0813	
2.0401	
1.99585	
2.02637	
2.07825	
2.03705	
2.00806	
1.92413	
2.00348	
2.05078	
1.93634	
1.90125	
1.86462	
1.79138	
1.77917	
1.73798	
1.74713	
1.77002	
1.78833	
1.77765	
1.79443	
1.83411	
1.91193	
1.93939	
2.11792	
2.13623	
2.28882	
2.35596	
2.67181	
2.93274	
3.3493	
3.39661	
3.21045	
2.98462	
2.6886	
2.48566	
2.26746	
1.98059	
1.7746	
1.6098	
1.45264	
1.34735	
1.28784	
1.35803	
1.78375	
2.07214	
2.13928	
2.11029	
2.24304	
2.54059	
2.78015	
2.79541	
2.66724	
2.50702	
2.31781	
2.16217	
2.06451	
1.98669	
1.95465	
1.93329	
1.87988	
1.76239	
1.69525	
2.11639	
2.43378	
2.52228	
2.46735	
2.53754	
2.89917	
2.81219	
2.64435	
2.36664	
2.034	
1.70898	
1.49231	
1.31989	
1.31378	
1.57166	
2.09656	
2.15454	
2.11029	
2.09503	
2.02484	
2.02026	
2.05383	
2.16217	
2.11029	
1.95618	
1.86768	
1.77307	
1.74561	
1.83411	
1.89819	
2.00806	
2.07977	
1.9989	
1.828	
1.96228	
2.2171	
2.33612	
2.47803	
2.45361	
2.44598	
2.43988	
2.40173	
2.2522	
2.07977	
1.96228	
1.87378	
1.80969	
1.79596	
1.82495	
1.80206	
1.828	
1.80359	
1.79901	
1.96991	
2.18353	
2.45819	
2.6535	
2.51923	
2.44293	
2.59094	
2.61536	
2.49481	
2.4292	
2.43225	
2.23846	
2.10876	
2.05688	
2.02026	
2.14386	
2.06451	
1.9577	
1.75629	
1.65558	
1.61591	
1.70746	
1.97754	
2.36664	
2.59247	
2.98309	
3.21503	
3.1662	
3.32642	
3.17993	
2.83508	
2.43378	
2.11182	
1.78986	
1.56708	
1.46942	
1.40533	
1.42365	
1.83411	
1.96838	
2.09808	
2.07214	
2.04315	
1.90582	
1.85394	
1.64948	
1.38702	
1.3092	
1.33972	
1.58691	
1.89819	
2.2171	
2.57721	
2.95105	
3.06549	
2.9541	
2.66266	
2.32697	
2.01263	
1.63116	
1.39923	
1.39923	
1.43585	
1.43585	
1.44196	
1.44196	
1.5625	
1.80511	
2.03247	
2.10419	
2.21252	
2.26288	
2.32697	
2.34375	
2.33612	
2.4765	
2.50702	
2.32239	
2.23236	
2.02484	
1.87378	
1.67847	
1.61438	
1.69983	
1.70593	
1.74561	
1.81427	
1.95313	
1.96991	
2.02484	
2.00348	
1.98975	
1.96686	
1.93024	
1.88293	
1.87225	
1.92413	
1.94702	
1.92108	
1.99585	
2.22626	
2.33765	
2.33765	
2.23694	
2.26746	
2.33002	
2.31934	
2.44751	
2.53296	
2.52686	
2.43378	
2.24304	
2.18048	
1.9928	
1.71356	
1.64032	
1.62048	
1.60217	
1.63269	
1.65863	
1.76239	
1.67847	
1.80817	
2.27509	
2.63824	
2.83508	
2.86102	
2.742	
2.40479	
1.9455	
1.57013	
1.29242	
1.22681	
1.18256	
1.40228	
1.57928	
1.6922	
1.72729	
1.82037	
2.06757	
2.16675	
2.0752	
1.98975	
1.97449	
1.99432	
2.09808	
2.12555	
2.034	
1.92108	
1.87531	
1.88904	
1.88446	
1.9104	
1.96838	
2.05231	
2.24457	
2.4231	
2.60315	
2.4353	
2.30713	
2.211	
2.1698	
2.07977	
2.00958	
1.9928	
1.95618	
1.81274	
1.74103	
1.72882	
1.55029	
1.52588	
1.45569	
1.38702	
1.32751	
1.36871	
1.47247	
1.57776	
1.68304	
1.69678	
1.98059	
2.02789	
1.86615	
1.63422	
1.31989	
1.28021	
1.38245	
1.5564	
1.63116	
1.70288	
1.87225	
2.05536	
2.1698	
2.20947	
2.45514	
2.56042	
2.72064	
2.49939	
1.9928	
1.67847	
1.60522	
1.57776	
1.6098	
1.72729	
1.79596	
1.82037	
1.84021	
1.84631	
1.83563	
1.82343	
1.78833	
1.73798	
1.67847	
1.57166	
1.54266	
1.49994	
1.50604	
1.5686	
1.70593	
1.74866	
1.76086	
1.77917	
1.75629	
1.73187	
1.66473	
1.6449	
1.64185	
1.66321	
1.70898	
1.79749	
1.82495	
1.89362	
1.80511	
1.93787	
1.95007	
2.14844	
2.27661	
2.25372	
2.11639	
1.86615	
1.65863	
1.57776	
1.46179	
1.39313	
1.47705	
1.36414	
1.3443	
1.40381	
1.45264	
1.56555	
1.50757	
1.30768	
1.32446	
1.31683	
1.38855	
1.46942	
1.52893	
1.6922	
1.85089	
1.92566	
2.02789	
2.18048	
2.2049	
2.15149	
2.11639	
2.08282	
2.09656	
2.00195	
1.98059	
1.79138	
1.55182	
1.41754	
1.45569	
1.56403	
1.57166	
1.75476	
1.94092	
1.90125	
1.94855	
2.09503	
2.0874	
2.00958	
1.9577	
1.83105	
1.67847	
1.52588	
1.47858	
1.53809	
1.52588	
1.55029	
1.54724	
1.57318	
1.51062	
1.5625	
1.55792	
1.58691	
1.57318	
1.46027	
1.3031	
1.21918	
1.31531	
1.44348	
1.53656	
1.70441	
1.87683	
1.96381	
1.89819	
1.93176	
1.87531	
1.91956	
1.87836	
1.90125	
2.01721	
1.98517	
1.76544	
1.65405	
1.53656	
1.38092	
1.48163	
1.49841	
1.41296	
1.48773	
1.54877	
1.61896	
1.7868	
2.04163	
1.96381	
2.18048	
2.09503	
1.79443	
1.62201	
1.61133	
1.5274	
1.57318	
1.59149	
1.53503	
1.57623	
1.56708	
1.73035	
1.76086	
1.85242	
1.97754	
1.97906	
1.87988	
1.46637	
1.09711	
1.10321	
0.904846	
0.737	
1.00708	
1.15814	
1.35803	
1.55945	
1.65863	
1.95465	
2.09961	
2.11334	
2.1225	
2.28424	
2.09961	
2.13928	
2.10114	
2.02484	
1.81885	
1.63116	
1.34277	
1.07269	
0.967407	
0.952148	
1.05133	
1.05438	
1.11084	
1.34888	
1.58997	
2.04163	
2.22931	
1.89209	
1.5625	
1.62659	
1.57928	
1.52588	
1.5152	
1.58386	
1.6449	
1.70288	
1.84784	
2.03094	
1.84479	
1.79596	
1.69525	
1.74255	
1.8692	
1.79749	
1.75018	
1.69983	
1.4801	
1.37329	
1.40686	
1.37634	
1.27106	
1.20697	
0.970459	
1.0376	
1.11389	
1.22528	
1.38855	
1.42059	
1.45416	
1.67389	
1.7395	
1.53961	
1.14746	
0.849915	
0.698853	
0.820923	
1.15356	
1.39008	
1.55029	
1.80817	
2.13623	
2.33002	
2.35596	
2.20947	
2.27051	
2.24457	
1.9455	
1.76849	
1.75476	
1.65558	
1.59607	
1.59607	
1.59302	
1.54114	
1.36719	
1.28632	
1.01166	
0.944519	
1.04675	
1.03455	
1.25275	
1.47705	
1.64337	
1.8158	
1.86462	
1.94244	
1.80359	
1.56555	
1.64337	
1.59454	
0.9552	
0.836182	
1.11084	
1.30615	
1.55945	
1.58997	
1.78375	
1.63727	
1.54266	
1.74561	
1.6098	
1.34735	
1.31531	
1.35651	
1.37482	
1.15662	
1.03302	
1.05133	
1.05743	
1.19324	
1.36871	
1.44043	
1.43127	
1.40991	
1.54877	
1.54877	
1.53046	
1.42059	
1.44501	
1.59149	
1.70593	
1.92566	
1.89209	
1.80817	
1.73035	
1.69983	
1.44958	
1.28937	
1.12305	
1.15204	
1.14288	
1.24054	
1.2619	
1.28021	
1.31531	
1.31989	
1.40076	
1.49689	
1.55487	
1.54114	
1.59912	
1.69525	
1.68915	
1.62659	
1.46027	
1.12762	
0.944519	
0.88501	
0.767517	
0.445557	
0.161743	
0.248718	
0.645447	
0.999451	
1.55029	
1.90582	
1.77155	
1.8158	
1.92413	
1.69067	
1.2619	
1.3855	
1.49078	
1.56708	
1.68762	
1.83716	
1.70441	
1.46484	
1.36871	
1.40533	
1.474	
1.6922	
1.7807	
1.93024	
1.86462	
1.55792	
1.49689	
1.43127	
1.28784	
0.683594	
0.57373	
0.717163	
0.93689	
1.23444	
1.49994	
1.79138	
2.01569	
2.0401	
1.67389	
1.22986	
0.785828	
0.244141	
0.561523	
0.846863	
1.12915	
1.32446	
1.37482	
1.55945	
1.37329	
1.43738	
1.30157	
1.06201	
1.25427	
1.44348	
1.30615	
1.25275	
1.45416	
1.77155	
1.70288	
1.2619	
0.958252	
0.846863	
0.871277	
0.973511	
1.11694	
1.65253	
2.33307	
2.28882	
1.87378	
1.5976	
1.27106	
1.15814	
1.06201	
1.21002	
1.09253	
0.956726	
1.32294	
1.28174	
1.36414	
1.31378	
1.15051	
1.21002	
1.07422	
1.10779	
1.20697	
1.16272	
1.02386	
1.22681	
1.41754	
1.41449	
1.51672	
1.51825	
1.22833	
0.875854	
0.932312	
0.866699	
1.06812	
1.20544	
1.24664	
1.67084	
1.83258	
1.75934	
1.76697	
1.87531	
1.82343	
1.66016	
1.52588	
1.27106	
1.091	
1.09253	
1.09253	
1.21002	
1.31989	
1.4679	
0.991821	
0.834656	
0.527954	
0.460815	
0.39978	
0.390625	
0.662231	
1.24512	
1.48163	
1.56555	
1.64032	
1.61133	
1.35498	
1.46332	
1.41602	
1.07269	
0.87738	
0.849915	
0.901794	
1.11847	
1.11542	
1.32446	
1.48468	
1.62354	
1.78375	
1.80969	
1.64185	
1.13525	
0.939941	
0.975037	
1.0025	
1.09863	
1.22681	
1.53961	
1.46942	
1.61896	
1.34735	
1.03912	
1.03912	
1.06049	
1.2619	
1.54724	
1.76239	
1.56097	
1.59607	
1.58691	
1.54419	
1.38397	
1.35193	
1.23901	
1.02234	
0.535583	
0.405884	
0.198364	
0.202942	
0.361633	
0.70343	
0.959778	
1.32599	
1.82037	
1.84326	
1.60828	
1.85852	
1.75629	
1.63879	
1.38397	
1.19171	
1.04828	
0.901794	
0.801086	
0.660706	
0.700378	
0.793457	
0.753784	
0.387573	
0.439453	
0.930786	
1.51215	
1.7395	
1.87683	
1.98212	
2.1347	
2.06757	
1.75171	
1.59302	
1.27869	
1.00403	
1.05591	
0.994873	
0.993347	
1.02844	
1.10779	
1.27563	
1.35193	
1.16425	
0.874329	
0.816345	
0.804138	
0.979614	
1.17645	
1.22833	
1.69067	
1.70288	
1.57623	
1.72882	
1.64642	
1.49078	
1.48315	
1.33972	
1.27411	
1.10626	
1.06659	
1.12915	
1.18408	
1.11542	
0.811768	
0.515747	
0.508118	
0.820923	
0.978088	
1.10779	
1.28174	
1.53351	
1.75476	
1.79138	
1.78223	
1.37939	
1.32904	
1.24054	
1.18103	
1.22833	
1.23901	
1.26953	
1.29242	
1.33057	
1.18103	
0.790405	
0.880432	
0.463867	
0.416565	
0.364685	
0.343323	
0.660706	
1.07422	
1.13678	
1.33057	
1.76392	
1.80054	
1.84326	
1.81274	
1.93176	
1.90887	
1.72577	
1.63879	
1.52435	
1.34277	
1.12762	
1.09253	
1.03149	
1.11847	
1.2146	
1.09253	
0.941467	
1.09406	
1.08948	
1.05743	
0.975037	
0.993347	
1.22528	
1.36108	
1.48773	
1.36108	
1.38245	
1.54724	
1.43433	
1.3443	
1.42059	
1.32294	
1.41907	
1.39771	
1.13983	
1.02081	
0.656128	
0.672913	
0.862122	
0.924683	
0.854492	
0.804138	
1.12762	
1.11237	
1.33362	
1.49994	
1.40228	
1.58844	
1.80206	
1.76697	
1.474	
1.36414	
1.41907	
1.40839	
1.39923	
1.25275	
0.971985	
1.05133	
1.07269	
0.975037	
1.12457	
1.27411	
1.44348	
1.474	
1.44806	
1.31836	
1.27869	
1.33514	
1.36871	
1.29547	
1.3504	
1.0025	
0.431824	
0.546265	
0.746155	
0.942993	
0.813293	
0.967407	
1.40076	
1.72577	
1.81885	
1.51215	
1.38245	
1.45416	
1.42975	
1.5274	
1.49384	
1.39771	
1.50909	
1.53351	
1.474	
1.4679	
1.45569	
1.20087	
0.939941	
0.590515	
0.50354	
0.521851	
0.637817	
1.11389	
1.34277	
1.53503	
1.6098	
1.55182	
1.22528	
1.36414	
1.40686	
1.3382	
1.44958	
1.42975	
1.60065	
1.5976	
1.53656	
1.51367	
1.58844	
1.651	
1.66473	
1.56555	
1.44348	
1.39313	
1.26953	
0.891113	
0.65155	
0.794983	
0.987244	
1.11847	
1.22375	
1.08795	
0.860596	
0.996399	
1.13678	
1.05133	
0.991821	
1.08032	
1.3031	
1.37482	
1.41144	
1.52435	
1.67389	
1.76392	
1.70135	
1.59607	
1.6037	
1.54724	
1.27716	
1.25885	
1.22528	
1.15662	
1.18256	
1.10474	
1.18713	
1.16577	
1.10168	
0.878906	
0.914001	
0.944519	
0.924683	
0.979614	
1.15509	
1.34583	
1.53961	
1.64032	
1.6571	
1.63422	
1.63422	
1.63574	
1.42975	
1.34125	
1.34583	
1.25885	
1.18561	
1.13831	
1.11084	
1.16882	
1.21002	
1.22986	
1.26953	
1.22986	
1.1795	
1.34888	
1.44653	
1.46179	
1.31989	
1.31683	
1.18256	
1.19171	
1.11542	
1.04828	
0.98114	
1.04675	
1.16272	
1.35803	
1.29089	
1.25122	
1.40686	
1.57623	
1.5686	
1.5152	
1.52283	
1.50909	
1.51215	
1.57471	
1.60217	
1.60217	
1.54266	
1.4801	
1.38245	
1.29547	
1.24207	
1.24512	
1.28021	
1.2146	
1.20087	
1.13831	
0.830078	
0.80719	
0.866699	
0.999451	
1.18103	
1.32904	
1.3855	
1.61896	
1.66931	
1.68152	
1.55487	
1.46637	
1.41449	
1.34888	
1.25885	
1.23138	
1.01624	
0.778198	
0.683594	
0.775146	
0.863647	
1.00098	
1.26038	
1.51978	
1.63727	
1.84631	
1.73187	
1.56097	
1.58081	
1.51978	
1.37329	
1.12152	
1.11084	
1.06049	
1.11542	
1.18408	
1.06354	
1.12762	
1.33667	
1.41296	
1.4389	
1.46179	
1.51062	
1.48315	
1.50299	
1.38702	
1.31226	
1.24207	
1.2085	
1.18713	
1.27411	
1.32751	
1.4328	
1.46179	
1.49841	
1.57166	
1.49689	
1.36719	
1.28784	
1.24664	
1.29395	
1.2146	
1.23291	
1.25122	
1.25427	
1.19781	
1.24054	
1.2558	
1.30768	
1.46027	
1.38245	
1.297	
1.33667	
1.24969	
1.12915	
1.05438	
0.912476	
0.930786	
1.06812	
1.07422	
1.00861	
1.21918	
1.57928	
1.76239	
1.66779	
1.63116	
1.49994	
1.47247	
1.37329	
1.41602	
1.48163	
1.38855	
1.37177	
1.42517	
1.41907	
1.41907	
1.38397	
1.32751	
1.26648	
1.0025	
0.83313	
0.970459	
1.10168	
1.21155	
1.22681	
1.41602	
1.45569	
1.3443	
1.1795	
1.02539	
1.11237	
1.15814	
1.27258	
1.32294	
1.4679	
1.54572	
1.48468	
1.40381	
1.39618	
1.37177	
1.22375	
1.08643	
0.804138	
0.608826	
0.71106	
0.906372	
0.967407	
1.13068	
1.29547	
1.52435	
1.57928	
1.41602	
1.3916	
1.35193	
1.09558	
0.860596	
0.70343	
0.80719	
0.9552	
1.091	
1.21765	
1.33362	
1.44348	
1.69983	
1.93329	
1.60065	
1.44806	
1.51825	
1.59454	
1.72729	
1.6449	
1.5152	
1.5152	
1.5152	
1.42365	
1.36871	
1.31836	
1.3092	
1.31531	
1.30768	
1.29395	
1.28784	
1.28479	
1.28479	
1.28021	
1.28174	
1.28174	
1.27716	
1.27869	
1.28479	
1.28937	
1.27563	
1.28784	
1.29089	
1.26648	
1.26343	
1.26343	
1.20544	
1.16577	
1.17035	
1.18103	
1.17798	
1.12457	
1.05743	
1.08643	
1.12915	
1.08185	
1.03455	
0.946045	
1.02997	
1.22833	
1.17493	
0.952148	
1.01013	
1.12915	
1.20697	
1.33057	
1.36414	
1.49231	
1.68457	
1.51825	
1.30157	
1.34888	
1.42517	
1.40839	
1.39313	
1.29547	
1.36414	
1.42365	
1.43585	
1.39771	
1.37329	
1.31683	
1.297	
1.24969	
1.1795	
1.14899	
1.10626	
0.552368	
0.468445	
0.4776	
0.669861	
0.839233	
0.933838	
1.25885	
1.69678	
2.05688	
1.84631	
1.67236	
1.63879	
1.57776	
1.4801	
1.40686	
1.36566	
1.32599	
1.31073	
1.29242	
1.27411	
1.25885	
1.27106	
1.27258	
1.2558	
1.24054	
1.22375	
1.22223	
1.22833	
1.22223	
1.22681	
1.20697	
1.13068	
1.08948	
1.0788	
1.15509	
1.2085	
1.12305	
1.16425	
1.19934	
1.25885	
1.35345	
1.40533	
1.49841	
1.44348	
1.41296	
1.38397	
1.36414	
1.36871	
1.34735	
1.31989	
1.30463	
1.29852	
1.297	
1.30157	
1.28021	
1.25122	
1.18408	
0.900269	
0.765991	
0.767517	
0.828552	
0.914001	
1.04828	
1.25427	
1.54572	
1.64032	
1.74561	
1.66931	
1.50909	
1.42822	
1.42975	
1.39923	
1.34583	
1.31531	
1.29547	
1.26953	
1.22833	
1.13983	
0.938416	
0.439453	
0.201416	
0.215149	
0.393677	
0.679016	
0.898743	
1.06201	
1.49689	
1.75629	
1.93329	
1.84326	
1.6037	
1.52588	
1.51215	
1.75934	
1.55487	
1.46332	
1.42212	
1.474	
1.45111	
1.40839	
1.37939	
1.35498	
1.33667	
1.3092	
1.29395	
1.28784	
1.28021	
1.2619	
1.2619	
1.23444	
1.22833	
1.24664	
1.25885	
1.26038	
1.28632	
1.29395	
1.33514	
1.32751	
1.34735	
1.38855	
1.40228	
1.39618	
1.41602	
1.42212	
1.40381	
1.37329	
1.35498	
1.3504	
1.36566	
1.37177	
1.37177	
1.35803	
1.34735	
1.3443	
1.35651	
1.35345	
1.3382	
1.33057	
1.30768	
1.26495	
1.14594	
1.05438	
1.05286	
1.11694	
1.11389	
1.14594	
1.22681	
1.36719	
1.41449	
1.52283	
1.50604	
1.51672	
1.51367	
1.49536	
1.42975	
1.33514	
1.27869	
1.25732	
1.24207	
1.23138	
1.28632	
1.32141	
1.32446	
1.32141	
1.33057	
1.28479	
1.2619	
1.21307	
1.04828	
0.964355	
0.852966	
0.866699	
0.938416	
1.02081	
1.1795	
1.2619	
1.42059	
1.65405	
1.53961	
1.5686	
1.56403	
1.52588	
1.43127	
1.39771	
1.35803	
1.33362	
1.31989	
1.3031	
1.28632	
1.28174	
1.28021	
1.27563	
1.26495	
1.26495	
1.25275	
1.20087	
0.993347	
0.779724	
0.820923	
0.921631	
1.04675	
1.17645	
1.30768	
1.39923	
1.55029	
1.66321	
1.64185	
1.52893	
1.38855	
1.32751	
1.29547	
1.28479	
1.27716	
1.27563	
1.27106	
1.26953	
1.25122	
1.24664	
1.23291	
1.22986	
1.2207	
1.21002	
1.19781	
0.897217	
0.776672	
0.837708	
0.894165	
0.984192	
1.10626	
1.25122	
1.37329	
1.54266	
1.69067	
1.69373	
1.43127	
1.32141	
1.32446	
1.34277	
1.3092	
1.28021	
1.28021	
1.27411	
1.26953	
1.25885	
1.24969	
1.24969	
1.24207	
1.24817	
1.19476	
1.10626	
0.978088	
0.895691	
0.642395	
0.531006	
0.569153	
0.715637	
0.863647	
1.04218	
1.25275	
1.4801	
1.54419	
1.48163	
1.57166	
1.651	
1.56555	
1.59149	
1.61438	
1.54266	
1.474	
1.41754	
1.3916	
1.32751	
1.29089	
1.26495	
1.26648	
1.22833	
1.12762	
0.898743	
0.628662	
0.561523	
0.58136	
0.674438	
0.816345	
0.935364	
1.08337	
1.42822	
1.63422	
1.70593	
1.66168	
1.58997	
1.55945	
1.50757	
1.41296	
1.35803	
1.36719	
1.31378	
1.26953	
1.26343	
1.24969	
1.24207	
1.23291	
1.23138	
1.23291	
1.2085	
1.12305	
0.897217	
0.709534	
0.65918	
0.741577	
0.898743	
1.05896	
1.22833	
1.38092	
1.51825	
1.56403	
1.64948	
1.59149	
1.44806	
1.40076	
1.37177	
1.32446	
1.31989	
1.31378	
1.28632	
1.26953	
1.25427	
1.21002	
1.21002	
1.22528	
1.11542	
1.03149	
0.875854	
0.819397	
0.784302	
0.764465	
0.709534	
0.715637	
0.828552	
0.973511	
1.19934	
1.37024	
1.46942	
1.5686	
1.47705	
1.47247	
1.57776	
1.52435	
1.50909	
1.51062	
1.46637	
1.3916	
1.36566	
1.35193	
1.28937	
1.27106	
1.23749	
1.15814	
1.06964	
0.9552	
0.96283	
0.787354	
0.590515	
0.724792	
0.848389	
0.942993	
1.03302	
1.16425	
1.29547	
1.34583	
1.40533	
1.47705	
1.52435	
1.52588	
1.54572	
1.53656	
1.47095	
1.42059	
1.37177	
1.31531	
1.28784	
1.26648	
1.24664	
1.23138	
1.18561	
1.16272	
1.06964	
0.985718	
0.942993	
0.906372	
0.939941	
0.990295	
1.07117	
1.14288	
1.23291	
1.297	
1.33667	
1.33514	
1.49994	
1.51672	
1.50146	
1.44196	
1.40686	
1.41602	
1.38245	
1.35498	
1.30768	
1.2619	
1.22375	
1.2085	
1.20087	
1.1673	
1.1322	
1.03607	
1.08337	
1.12305	
1.17035	
1.26495	
1.31683	
1.33514	
1.21002	
1.15662	
1.15509	
1.19019	
1.36414	
1.33972	
1.34583	
1.30463	
1.29547	
1.30615	
1.27258	
1.2558	
1.27716	
1.28021	
1.24664	
1.25122	
1.24817	
1.23291	
1.1795	
1.12457	
1.04065	
0.871277	
0.689697	
0.537109	
0.427246	
0.436401	
0.508118	
0.675964	
0.906372	
1.18713	
1.41907	
1.54114	
1.61285	
1.73798	
1.83716	
1.79749	
1.73492	
1.69678	
1.61133	
1.55182	
1.51825	
1.48315	
1.45569	
1.44043	
1.40533	
1.32141	
1.29242	
1.34583	
1.41754	
1.48163	
1.55487	
1.52893	
1.46484	
1.39618	
1.3092	
1.27258	
1.27106	
1.31531	
1.34735	
1.38092	
1.36719	
1.3443	
1.28784	
1.27716	
1.28326	
1.26038	
1.24054	
1.22528	
1.2146	
1.2146	
1.19476	
1.1673	
1.19019	
1.2619	
1.26495	
1.19476	
1.17798	
1.12152	
1.12915	
1.21155	
1.31073	
1.4389	
1.53961	
1.57776	
1.5976	
1.54877	
1.51978	
1.53809	
1.57776	
1.44958	
1.33057	
1.28937	
1.24054	
1.25427	
1.28632	
1.29547	
1.30463	
1.31226	
1.31226	
1.28937	
1.25122	
1.25427	
1.14746	
1.08337	
1.06964	
1.08337	
1.13831	
1.21307	
1.27716	
1.33667	
1.42822	
1.48773	
1.49689	
1.50604	
1.53656	
1.6037	
1.58997	
1.5564	
1.48315	
1.41907	
1.40991	
1.3916	
1.39313	
1.41144	
1.42212	
1.41602	
1.39008	
1.37024	
1.35193	
1.33362	
1.32294	
1.33972	
1.35498	
1.3916	
1.474	
1.53656	
1.57623	
1.5976	
1.57471	
1.52893	
1.53351	
1.54266	
1.50909	
1.46637	
1.36871	
1.3092	
1.26953	
1.22681	
1.24207	
1.23901	
1.25732	
1.32599	
1.38702	
1.42212	
1.37787	
1.36108	
1.34277	
1.41754	
1.41602	
1.38855	
1.41754	
1.46332	
1.5686	
1.66016	
1.58997	
1.58081	
1.61896	
1.6098	
1.5976	
1.53351	
1.4328	
1.40686	
1.41144	
1.41144	
1.38092	
1.40839	
1.40228	
1.37787	
1.32599	
1.28479	
1.24817	
1.21155	
1.22223	
1.22223	
1.18561	
1.21155	
1.23901	
1.24817	
1.23901	
1.29242	
1.32294	
1.38855	
1.50299	
1.57623	
1.64642	
1.62659	
1.61591	
1.58386	
1.47858	
1.42822	
1.43738	
1.46027	
1.45111	
1.45569	
1.49231	
1.50146	
1.46332	
1.44043	
1.43585	
1.4389	
1.44043	
1.4328	
1.43738	
1.44501	
1.44348	
1.42975	
1.42212	
1.40381	
1.40381	
1.40076	
1.39313	
1.40076	
1.42365	
1.45721	
1.5152	
1.50757	
1.62659	
1.71814	
1.70441	
1.6861	
1.6922	
1.67542	
1.64185	
1.5976	
1.50299	
1.5976	
1.78986	
1.77917	
1.71356	
1.56555	
1.50299	
1.62201	
1.67542	
1.63422	
1.71356	
1.92261	
1.98822	
2.00348	
1.96686	
1.88904	
1.78833	
1.73492	
1.54266	
1.34125	
1.27411	
1.19019	
1.15967	
1.15356	
1.14899	
1.21002	
1.25122	
1.23291	
1.22528	
1.21613	
1.16882	
1.19934	
1.28784	
1.33972	
1.3443	
1.3504	
1.38397	
1.46332	
1.48468	
1.49841	
1.43585	
1.40228	
1.38245	
1.41296	
1.4328	
1.50604	
1.5564	
1.55487	
1.54572	
1.51978	
1.51825	
1.50299	
1.49689	
1.49689	
1.50146	
1.50452	
1.51367	
1.5152	
1.5152	
1.51672	
1.52283	
1.54724	
1.60828	
1.61285	
1.59302	
1.57166	
1.64337	
1.66779	
1.65253	
1.61285	
1.62201	
1.63269	
1.5976	
1.55792	
1.50909	
1.4679	
1.49841	
1.51672	
1.50604	
1.48621	
1.43738	
1.41296	
1.39313	
1.45416	
1.70135	
1.79291	
1.88599	
1.80359	
1.72119	
1.87531	
2.04315	
1.99585	
1.85242	
1.68915	
1.54419	
1.50909	
1.49841	
1.4801	
1.43127	
1.40839	
1.32599	
1.28326	
1.26038	
1.23291	
1.22681	
1.29547	
1.33972	
1.35345	
1.34277	
1.36871	
1.38702	
1.39618	
1.39618	
1.40381	
1.43738	
1.44653	
1.77307	
2.01416	
2.07367	
2.04315	
2.00043	
1.89972	
1.72577	
1.57013	
1.38702	
1.19629	
1.08337	
1.06049	
1.0498	
1.15509	
1.32751	
1.45569	
1.54114	
1.60828	
1.5625	
1.53809	
1.53503	
1.54572	
1.55487	
1.56403	
1.57013	
1.55792	
1.56555	
1.57318	
1.58234	
1.58386	
1.61133	
1.66931	
1.72119	
1.73798	
1.71661	
1.66016	
1.59607	
1.53656	
1.49841	
1.45264	
1.40076	
1.3855	
1.44348	
1.51367	
1.55792	
1.62354	
1.64948	
1.64642	
1.62811	
1.64948	
1.6449	
2.13928	
2.22168	
2.10724	
2.12708	
2.15912	
2.211	
2.17743	
2.1225	
2.04315	
1.81274	
1.54419	
1.33514	
1.23749	
1.2146	
1.18103	
1.23444	
1.32446	
1.39771	
1.37177	
1.35803	
1.34125	
1.32751	
1.31989	
1.29547	
1.3504	
1.44501	
1.50146	
1.49231	
1.50299	
1.58691	
1.6983	
1.64185	
1.53503	
1.49231	
1.45111	
1.40228	
1.37634	
1.42365	
1.50146	
1.53503	
1.47705	
1.46637	
1.43585	
1.42517	
1.41144	
1.47858	
1.5274	
1.57928	
1.62506	
1.65558	
1.64032	
1.63574	
1.60522	
1.53809	
1.50452	
1.48315	
1.4801	
1.49384	
1.51215	
1.56708	
1.61133	
1.62201	
1.6098	
1.6098	
1.64642	
1.64948	
1.67542	
1.84937	
1.98059	
1.92719	
1.8219	
1.77765	
1.66931	
1.68762	
1.7746	
1.72882	
1.72882	
1.71509	
1.64032	
1.67542	
1.83105	
1.89667	
1.83563	
1.76544	
1.67236	
1.59454	
1.54114	
1.74866	
1.8631	
1.94702	
1.98364	
1.86005	
1.81427	
1.79749	
1.91956	
1.98822	
1.9455	
1.83411	
1.65863	
1.48163	
1.36108	
1.26495	
1.28174	
1.20697	
1.12305	
1.08795	
1.1322	
1.14899	
1.22833	
1.37939	
1.49841	
1.5976	
1.61133	
1.54419	
1.48315	
1.4389	
1.44196	
1.45264	
1.44043	
1.44196	
1.47095	
1.49841	
1.52283	
1.54114	
1.5686	
1.55029	
1.53656	
1.58691	
1.65558	
1.72577	
1.80054	
1.78375	
1.73187	
1.69525	
1.67084	
1.65558	
1.63879	
1.61591	
1.60522	
1.58386	
1.57166	
1.56403	
1.5686	
1.56555	
1.58234	
1.6861	
1.70288	
1.69983	
1.75629	
1.98212	
2.005	
1.94397	
1.82953	
1.76392	
1.67389	
1.65253	
1.66779	
1.6983	
1.6571	
1.58844	
1.51062	
1.46332	
1.4328	
1.41296	
1.46942	
1.54724	
1.58691	
1.63269	
1.79443	
1.83563	
1.85242	
1.87225	
1.91956	
1.94855	
2.11945	
2.23846	
2.04163	
1.88446	
1.7334	
1.58691	
1.51062	
1.52588	
1.58081	
1.56097	
1.5152	
1.45264	
1.38245	
1.3504	
1.29395	
1.35193	
1.42975	
1.46942	
1.44958	
1.40381	
1.45111	
1.46179	
1.45264	
1.4679	
1.50146	
1.58844	
1.62048	
1.64185	
1.63116	
1.60828	
1.61896	
1.66473	
1.66321	
1.6861	
1.67389	
1.62506	
1.58386	
1.54724	
1.52435	
1.52893	
1.58081	
1.6037	
1.5564	
1.55945	
1.58844	
1.61591	
1.63269	
1.63422	
1.62659	
1.62964	
1.63269	
1.69678	
1.75629	
1.78375	
1.76086	
1.73798	
1.71814	
1.68304	
1.63116	
1.5976	
1.70441	
1.85089	
1.82343	
1.76086	
1.72729	
1.71661	
1.72424	
1.70593	
1.6861	
1.63116	
1.55792	
1.48773	
1.4389	
1.4389	
1.47247	
1.51672	
1.61438	
1.67847	
1.71967	
1.72729	
1.69678	
1.66626	
1.68304	
1.69373	
1.69373	
1.72272	
1.74866	
1.72424	
1.67694	
1.62506	
1.59912	
1.57166	
1.5625	
1.58234	
1.57928	
1.61133	
1.60217	
1.61896	
1.61133	
1.62659	
1.6922	
1.68304	
1.61133	
1.5274	
1.48773	
1.56708	
1.75323	
1.83716	
1.8631	
1.81122	
1.7807	
1.72882	
1.67236	
1.6922	
1.6571	
1.62201	
1.59607	
1.57166	
1.61591	
1.62354	
1.651	
1.64337	
1.80206	
1.87988	
1.81732	
1.77155	
1.7334	
1.68915	
1.68762	
1.72272	
1.70746	
1.68304	
1.60217	
1.54114	
1.4801	
1.48315	
1.5152	
1.54266	
1.58844	
1.60065	
1.54877	
1.5274	
1.5274	
1.53046	
1.53961	
1.56555	
1.58081	
1.5976	
1.61438	
1.62506	
1.62964	
1.64948	
1.66168	
1.66931	
1.67084	
1.66779	
1.65253	
1.63879	
1.63422	
1.63879	
1.64948	
1.64642	
1.65253	
1.64642	
1.65253	
1.64032	
1.63574	
1.63574	
1.63269	
1.63727	
1.65558	
1.69373	
1.73492	
1.75476	
1.74103	
1.72272	
1.68457	
1.63574	
1.6098	
1.58691	
1.55792	
1.55792	
1.58386	
1.6098	
1.6922	
1.89514	
1.97601	
1.98212	
1.98364	
1.88904	
1.80206	
1.72577	
1.64337	
1.62048	
1.58081	
1.50299	
1.5976	
1.60675	
1.59607	
1.64337	
1.66016	
1.6449	
1.6449	
1.6571	
1.67389	
1.63422	
1.58081	
1.54114	
1.50452	
1.62811	
1.74255	
1.74255	
1.71661	
1.69678	
1.65863	
1.59149	
1.56097	
1.5152	
1.49536	
1.50757	
1.5152	
1.52893	
1.52588	
1.53046	
1.51672	
1.54114	
1.57471	
1.59149	
1.6098	
1.62201	
1.63422	
1.64948	
1.64642	
1.651	
1.65558	
1.66016	
1.66931	
1.67389	
1.68915	
1.70135	
1.68915	
1.67847	
1.66626	
1.6571	
1.6449	
1.62506	
1.60828	
1.63727	
1.64185	
1.62659	
1.61896	
1.65253	
1.73187	
1.74561	
1.7334	
1.73187	
1.73187	
1.70135	
1.65405	
1.63879	
1.61285	
1.59607	
1.59607	
1.60522	
1.58234	
1.57928	
1.60828	
1.62201	
1.68457	
1.73492	
1.72882	
1.68915	
1.64185	
1.61896	
1.60675	
1.61896	
1.6449	
1.65405	
1.63879	
1.60217	
1.57166	
1.58844	
1.61133	
1.62048	
1.64642	
1.63116	
1.61438	
1.60065	
1.62201	
1.64337	
1.651	
1.66016	
1.65863	
1.66321	
1.68152	
1.68457	
1.67847	
1.67084	
1.66016	
1.6571	
1.65405	
1.65405	
1.65558	
1.65253	
1.64948	
1.64642	
1.64337	
