-2.9478788
-2.9494088
-2.9448288
-2.9494088
-2.9509388
-2.9494088
-2.9478788
-2.9448288
-2.9570388
-2.9555088
-2.9539888
-2.9524588
-2.9570388
-2.9570388
-2.9600888
-2.9570388
-2.9524588
-2.9555088
-2.9585688
-2.9539888
-2.9509388
-2.9539888
-2.9478788
-2.9524588
-2.9417788
-2.9509388
-2.9478788
-2.9509388
-2.9509388
-2.9433088
-2.9509388
-2.9478788
-2.9555088
-2.9478788
-2.9494088
-2.9448288
-2.9433088
-2.9478788
-2.9478788
-2.9478788
-2.9433088
-2.9494088
-2.9478788
-2.9402588
-2.9402588
-2.9478788
-2.9417788
-2.9478788
-2.9433088
-2.9494088
-2.9417788
-2.9448288
-2.9448288
-2.9433088
-2.9494088
-2.9494088
-2.9448288
-2.9448288
-2.9509388
-2.9478788
-2.9494088
-2.9494088
-2.9448288
-2.9494088
-2.9494088
-2.9524588
-2.9494088
-2.9478788
-2.9509388
-2.9494088
-2.9448288
-2.9539888
-2.9448288
-2.9478788
-2.9371988
-2.9478788
-2.9448288
-2.9494088
-2.9494088
-2.9417788
-2.9478788
-2.9417788
-2.9417788
-2.9402588
-2.9478788
-2.9417788
-2.9494088
-2.9433088
-2.9433088
-2.9433088
-2.9433088
-2.9478788
-2.9448288
-2.9387288
-2.9448288
-2.9478788
-2.9402588
-2.9448288
-2.9433088
-2.9494088
-2.9433088
-2.9448288
-2.9478788
-2.9478788
-2.9494088
-2.9478788
-2.9478788
-2.9539888
-2.9494088
-2.9494088
-2.9494088
-2.9494088
-2.9448288
-2.9433088
-2.9478788
-2.9478788
-2.9494088
-2.9448288
-2.9509388
-2.9433088
-2.9417788
-2.9448288
-2.9417788
-2.9433088
-2.9387288
-2.9448288
-2.9402588
-2.9433088
-2.9417788
-2.9402588
-2.9448288
-2.9433088
-2.9387288
-2.9402588
-2.9433088
-2.9433088
-2.9448288
-2.9433088
-2.9448288
-2.9433088
-2.9433088
-2.9433088
-2.9417788
-2.9310988
-2.9417788
-2.9402588
-2.9387288
-2.9417788
-2.9433088
-2.9433088
-2.9387288
-2.9402588
-2.9371988
-2.9387288
-2.9433088
-2.9387288
-2.9433088
-2.9494088
-2.9448288
-2.9417788
-2.9448288
-2.9433088
-2.9433088
-2.9478788
-2.9494088
-2.9478788
-2.9448288
-2.9433088
-2.9524588
-2.9448288
-2.9433088
-2.9448288
-2.9402588
-2.9433088
-2.9417788
-2.9402588
-2.9448288
-2.9448288
-2.9417788
-2.9402588
-2.9448288
-2.9417788
-2.9341488
-2.9402588
-2.9494088
-2.9433088
-2.9433088
-2.9402588
-2.9478788
-2.9417788
-2.9433088
-2.9433088
-2.9433088
-2.9356788
-2.9509388
-2.9494088
-2.9448288
-2.9494088
-2.9494088
-2.9524588
-2.9494088
-2.9509388
-2.9448288
-2.9478788
-2.9539888
-2.9478788
-2.9494088
-2.9555088
-2.9494088
-2.9417788
-2.9494088
-2.9494088
-2.9448288
-2.9448288
-2.9509388
-2.9509388
-2.9448288
-2.9433088
-2.9570388
-2.9478788
-2.9417788
-2.9478788
-2.9433088
-2.9433088
-2.9433088
-2.9448288
-2.9448288
-2.9478788
-2.9448288
-2.9433088
-2.9494088
-2.9478788
-2.9402588
-2.9417788
-2.9478788
-2.9417788
-2.9448288
-2.9433088
-2.9433088
-2.9417788
-2.9448288
-2.9478788
-2.9448288
-2.9341488
-2.9478788
-2.9524588
-2.9494088
-2.9539888
-2.9478788
-2.9524588
-2.9494088
-2.9494088
-2.9478788
-2.9448288
-2.9494088
-2.9448288
-2.9494088
-2.9539888
-2.9448288
-2.9402588
-2.9478788
-2.9417788
-2.9494088
-2.9433088
-2.9478788
-2.9494088
-2.9478788
-2.9478788
-2.9616188
-2.9509388
-2.9448288
-2.9524588
-2.9494088
-2.9494088
-2.9494088
-2.9509388
-2.9478788
-2.9509388
-2.9478788
-2.9478788
-2.9509388
-2.9509388
-2.9494088
-2.9478788
-2.9509388
-2.9494088
-2.9539888
-2.9494088
-2.9555088
-2.9509388
-2.9509388
-2.9524588
-2.9555088
-2.9402588
-2.9570388
-2.9555088
-2.9509388
-2.9570388
-2.9539888
-2.9585688
-2.9509388
-2.9524588
-2.9509388
-2.9524588
-2.9539888
-2.9509388
-2.9539888
-2.9555088
-2.9539888
-2.9524588
-2.9585688
-2.9509388
-2.9539888
-2.9494088
-2.9539888
-2.9524588
-2.9539888
-2.9524588
-2.9631388
-2.9509388
-2.9494088
-2.9539888
-2.9494088
-2.9509388
-2.9555088
-2.9539888
-2.9539888
-2.9524588
-2.9539888
-2.9570388
-2.9585688
-2.9555088
-2.9524588
-2.9524588
-2.9509388
-2.9494088
-2.9555088
-2.9524588
-2.9585688
-2.9509388
-2.9539888
-2.9494088
-2.9524588
-2.9371988
-2.9494088
-2.9478788
-2.9448288
-2.9494088
-2.9509388
-2.9494088
-2.9448288
-2.9433088
-2.9448288
-2.9494088
-2.9448288
-2.9478788
-2.9494088
-2.9509388
-2.9478788
-2.9448288
-2.9524588
-2.9448288
-2.9509388
-2.9478788
-2.9509388
-2.9478788
-2.9509388
-2.9448288
-2.9600888
-2.9448288
-2.9433088
-2.9509388
-2.9433088
-2.9494088
-2.9509388
-2.9494088
-2.9524588
-2.9509388
-2.9478788
-2.9509388
-2.9509388
-2.9509388
-2.9433088
-2.9478788
-2.9494088
-2.9417788
-2.9433088
-2.9402588
-2.9433088
-2.9417788
-2.9402588
-2.9387288
-2.9387288
-2.9265188
-2.9417788
-2.9387288
-2.9356788
-2.9417788
-2.9387288
-2.9387288
-2.9356788
-2.9371988
-2.9387288
-2.9433088
-2.9402588
-2.9402588
-2.9402588
-2.9417788
-2.9417788
-2.9402588
-2.9417788
-2.9371988
-2.9417788
-2.9326288
-2.9371988
-2.9387288
-2.9387288
-2.9356788
-2.9524588
-2.9356788
-2.9402588
-2.9417788
-2.9371988
-2.9387288
-2.9356788
-2.9402588
-2.9417788
-2.9402588
-2.9371988
-2.9402588
-2.9402588
-2.9417788
-2.9356788
-2.9356788
-2.9387288
-2.9341488
-2.9387288
-2.9371988
-2.9417788
-2.9356788
-2.9371988
-2.9356788
-2.9387288
-2.9280488
-2.9387288
-2.9387288
-2.9341488
-2.9433088
-2.9387288
-2.9387288
-2.9371988
-2.9356788
-2.9356788
-2.9417788
-2.9356788
-2.9356788
-2.9387288
-2.9387288
-2.9417788
-2.9402588
-2.9417788
-2.9387288
-2.9371988
-2.9341488
-2.9371988
-2.9371988
-2.9387288
-2.9402588
-2.9524588
-2.9417788
-2.9402588
-2.9417788
-2.9341488
-2.9371988
-2.9341488
-2.9371988
-2.9402588
-2.9387288
-2.9387288
-2.9402588
-2.9433088
-2.9402588
-2.9356788
-2.9341488
-2.9417788
-2.9387288
-2.9433088
-2.9417788
-2.9448288
-2.9417788
-2.9417788
-2.9387288
-2.9448288
-2.9356788
-2.9417788
-2.9417788
-2.9387288
-2.9448288
-2.9417788
-2.9433088
-2.9371988
-2.9356788
-2.9402588
-2.9417788
-2.9387288
-2.9402588
-2.9402588
-2.9433088
-2.9387288
-2.9387288
-2.9417788
-2.9433088
-2.9417788
-2.9402588
-2.9417788
-2.9387288
-2.9478788
-2.9417788
-2.9509388
-2.9433088
-2.9417788
-2.9494088
-2.9433088
-2.9448288
-2.9494088
-2.9478788
-2.9539888
-2.9509388
-2.9478788
-2.9478788
-2.9509388
-2.9509388
-2.9448288
-2.9417788
-2.9448288
-2.9448288
-2.9478788
-2.9478788
-2.9509388
-2.9433088
-2.9448288
-2.9417788
-2.9494088
-2.9402588
-2.9448288
-2.9494088
-2.9448288
-2.9494088
-2.9494088
-2.9524588
-2.9478788
-2.9417788
-2.9402588
-2.9478788
-2.9448288
-2.9448288
-2.9478788
-2.9478788
-2.9509388
-2.9433088
-2.9448288
-2.9448288
-2.9494088
-2.9417788
-2.9417788
-2.9478788
-2.9509388
-2.9448288
-2.9494088
-2.9433088
-2.9433088
-2.9494088
-2.9448288
-2.9433088
-2.9433088
-2.9494088
-2.9494088
-2.9509388
-2.9494088
-2.9509388
-2.9539888
-2.9509388
-2.9478788
-2.9433088
-2.9509388
-2.9555088
-2.9494088
-2.9494088
-2.9509388
-2.9478788
-2.9478788
-2.9402588
-2.9509388
-2.9417788
-2.9494088
-2.9448288
-2.9478788
-2.9509388
-2.9509388
-2.9524588
-2.9478788
-2.9478788
-2.9448288
-2.9478788
-2.9494088
-2.9509388
-2.9478788
-2.9509388
-2.9524588
-2.9494088
-2.9478788
-2.9478788
-2.9509388
-2.9448288
-2.9494088
-2.9494088
-2.9539888
-2.9433088
-2.9539888
-2.9478788
-2.9494088
-2.9494088
-2.9478788
-2.9494088
-2.9417788
-2.9539888
-2.9524588
-2.9524588
-2.9509388
-2.9494088
-2.9524588
-2.9524588
-2.9494088
-2.9433088
-2.9509388
-2.9509388
-2.9509388
-2.9509388
-2.9555088
-2.9524588
-2.9539888
-2.9509388
-2.9539888
-2.9494088
-2.9524588
-2.9478788
-2.9433088
-2.9494088
-2.9478788
-2.9494088
-2.9417788
-2.9433088
-2.9448288
-2.9448288
-2.9433088
-2.9448288
-2.9448288
-2.9478788
-2.9478788
-2.9433088
-2.9433088
-2.9448288
-2.9478788
-2.9402588
-2.9509388
-2.9417788
-2.9509388
-2.9448288
-2.9478788
-2.9478788
-2.9524588
-2.9494088
-2.9494088
-2.9448288
-2.9387288
-2.9478788
-2.9494088
-2.9494088
-2.9433088
-2.9448288
-2.9509388
-2.9433088
-2.9448288
-2.9417788
-2.9448288
-2.9448288
-2.9448288
-2.9433088
-2.9494088
-2.9417788
-2.9478788
-2.9402588
-2.9448288
-2.9402588
-2.9433088
-2.9417788
-2.9417788
-2.9433088
-2.9433088
-2.9494088
-2.9417788
-2.9433088
-2.9417788
-2.9448288
-2.9433088
-2.9433088
-2.9448288
-2.9448288
-2.9448288
-2.9433088
-2.9387288
-2.9402588
-2.9402588
-2.9356788
-2.9402588
-2.9417788
-2.9478788
-2.9387288
-2.9417788
-2.9402588
-2.9417788
-2.9433088
-2.9402588
-2.9433088
-2.9402588
-2.9478788
-2.9478788
-2.9494088
-2.9402588
-2.9494088
-2.9433088
-2.9478788
-2.9417788
-2.9433088
-2.9448288
-2.9524588
-2.9478788
-2.9448288
-2.9509388
-2.9448288
-2.9478788
-2.9371988
-2.9448288
-2.9433088
-2.9433088
-2.9402588
-2.9417788
-2.9387288
-2.9402588
-2.9417788
-2.9371988
-2.9371988
-2.9341488
-2.9387288
-2.9402588
-2.9402588
-2.9371988
-2.9402588
-2.9371988
-2.9402588
-2.9326288
-2.9387288
-2.9417788
-2.9356788
-2.9402588
-2.9402588
-2.9478788
-2.9402588
-2.9433088
-2.9387288
-2.9402588
-2.9448288
-2.9417788
-2.9417788
-2.9417788
-2.9433088
-2.9417788
-2.9417788
-2.9402588
-2.9402588
-2.9417788
-2.9433088
-2.9417788
-2.9371988
-2.9402588
-2.9448288
-2.9371988
-2.9402588
-2.9448288
-2.9371988
-2.9402588
-2.9341488
-2.9402588
-2.9371988
-2.9402588
-2.9387288
-2.9356788
-2.9433088
-2.9402588
-2.9371988
-2.9371988
-2.9387288
-2.9356788
-2.9402588
-2.9356788
-2.9371988
-2.9371988
-2.9356788
-2.9387288
-2.9356788
-2.9295688
-2.9371988
-2.9402588
-2.9341488
-2.9371988
-2.9326288
-2.9417788
-2.9356788
-2.9356788
-2.9356788
-2.9387288
-2.9402588
-2.9341488
-2.9371988
-2.9417788
-2.9387288
-2.9341488
-2.9371988
-2.9356788
-2.9341488
-2.9341488
-2.9371988
-2.9341488
-2.9356788
-2.9371988
-2.9433088
-2.9387288
-2.9371988
-2.9402588
-2.9356788
-2.9371988
-2.9341488
-2.9417788
-2.9371988
-2.9356788
-2.9371988
-2.9341488
-2.9402588
-2.9387288
-2.9341488
-2.9387288
-2.9402588
-2.9356788
-2.9402588
-2.9402588
-2.9402588
-2.9387288
-2.9371988
-2.9402588
-2.9387288
-2.9295688
-2.9341488
-2.9356788
-2.9326288
-2.9356788
-2.9341488
-2.9371988
-2.9326288
-2.9371988
-2.9371988
-2.9402588
-2.9494088
-2.9371988
-2.9402588
-2.9433088
-2.9433088
-2.9356788
-2.9402588
-2.9371988
-2.9371988
-2.9356788
-2.9371988
-2.9356788
-2.9371988
-2.9356788
-2.9433088
-2.9341488
-2.9310988
-2.9371988
-2.9356788
-2.9356788
-2.9295688
-2.9371988
-2.9326288
-2.9371988
-2.9356788
-2.9341488
-2.9387288
-2.9371988
-2.9280488
-2.9371988
-2.9356788
-2.9356788
-2.9341488
-2.9326288
-2.9326288
-2.9341488
-2.9310988
-2.9341488
-2.9356788
-2.9280488
-2.9356788
-2.9387288
-2.9326288
-2.9371988
-2.9356788
-2.9387288
-2.9341488
-2.9356788
-2.9341488
-2.9356788
-2.9417788
-2.9341488
-2.9402588
-2.9478788
-2.9417788
-2.9371988
-2.9433088
-2.9448288
-2.9433088
-2.9433088
-2.9448288
-2.9417788
-2.9417788
-2.9417788
-2.9524588
-2.9417788
-2.9387288
-2.9417788
-2.9402588
-2.9371988
-2.9356788
-2.9417788
-2.9417788
-2.9448288
-2.9417788
-2.9371988
-2.9448288
-2.9433088
-2.9371988
-2.9417788
-2.9494088
-2.9417788
-2.9448288
-2.9417788
-2.9478788
-2.9417788
-2.9494088
-2.9478788
-2.9478788
-2.9341488
-2.9433088
-2.9402588
-2.9402588
-2.9417788
-2.9417788
-2.9402588
-2.9371988
-2.9341488
-2.9356788
-2.9356788
-2.9356788
-2.9387288
-2.9341488
-2.9417788
-2.9387288
-2.9356788
-2.9371988
-2.9341488
-2.9356788
-2.9326288
-2.9371988
-2.9356788
-2.9371988
-2.9387288
-2.9509388
-2.9387288
-2.9326288
-2.9356788
-2.9356788
-2.9341488
-2.9356788
-2.9371988
-2.9341488
-2.9341488
-2.9310988
-2.9341488
-2.9356788
-2.9310988
-2.9295688
-2.9326288
-2.9356788
-2.9310988
-2.9356788
-2.9341488
-2.9387288
-2.9356788
-2.9387288
-2.9356788
-2.9402588
-2.9265188
-2.9371988
-2.9356788
-2.9341488
-2.9371988
-2.9356788
-2.9371988
-2.9371988
-2.9387288
-2.9371988
-2.9387288
-2.9371988
-2.9387288
-2.9387288
-2.9433088
-2.9402588
-2.9356788
-2.9417788
-2.9387288
-2.9402588
-2.9371988
-2.9402588
-2.9387288
-2.9387288
-2.9371988
-2.9509388
-2.9371988
-2.9387288
-2.9402588
-2.9356788
-2.9371988
-2.9371988
-2.9402588
-2.9387288
-2.9387288
-2.9371988
-2.9387288
-2.9417788
-2.9417788
-2.9341488
-2.9387288
-2.9417788
-2.9387288
-2.9433088
-2.9402588
-2.9448288
-2.9387288
-2.9417788
-2.9402588
-2.9417788
-2.9295688
-2.9371988
-2.9402588
-2.9387288
-2.9402588
-2.9402588
-2.9356788
-2.9341488
-2.9326288
-2.9295688
-2.9356788
-2.9326288
-2.9326288
-2.9341488
-2.9371988
-2.9356788
-2.9326288
-2.9387288
-2.9356788
-2.9371988
-2.9326288
-2.9371988
-2.9356788
-2.9402588
-2.9356788
-2.9494088
-2.9387288
-2.9356788
-2.9387288
-2.9326288
-2.9356788
-2.9371988
-2.9371988
-2.9341488
-2.9371988
-2.9341488
-2.9356788
-2.9341488
-2.9310988
-2.9280488
-2.9295688
-2.9326288
-2.9280488
-2.9295688
-2.9295688
-2.9326288
-2.9310988
-2.9341488
-2.9265188
-2.9326288
-2.9188888
-2.9341488
-2.9310988
-2.9265188
-2.9341488
-2.9280488
-2.9265188
-2.9295688
-2.9265188
-2.9265188
-2.9341488
-2.9310988
-2.9265188
-2.9310988
-2.9341488
-2.9341488
-2.9280488
-2.9341488
-2.9310988
-2.9310988
-2.9265188
-2.9295688
-2.9295688
-2.9326288
-2.9265188
-2.9371988
-2.9310988
-2.9265188
-2.9326288
-2.9234688
-2.9265188
-2.9295688
-2.9310988
-2.9341488
-2.9326288
-2.9326288
-2.9326288
-2.9326288
-2.9310988
-2.9280488
-2.9295688
-2.9326288
-2.9295688
-2.9326288
-2.9326288
-2.9341488
-2.9310988
-2.9326288
-2.9265188
-2.9326288
-2.9219388
-2.9326288
-2.9371988
-2.9310988
-2.9356788
-2.9371988
-2.9341488
-2.9326288
-2.9280488
-2.9280488
-2.9310988
-2.9326288
-2.9295688
-2.9326288
-2.9341488
-2.9356788
-2.9341488
-2.9371988
-2.9326288
-2.9371988
-2.9265188
-2.9356788
-2.9371988
-2.9402588
-2.9341488
-2.9417788
-2.9356788
-2.9356788
-2.9371988
-2.9341488
-2.9326288
-2.9356788
-2.9356788
-2.9371988
-2.9356788
-2.9310988
-2.9326288
-2.9387288
-2.9356788
-2.9310988
-2.9341488
-2.9341488
-2.9341488
-2.9371988
-2.9326288
-2.9387288
-2.9356788
-2.9371988
-2.9341488
-2.9371988
-2.9295688
-2.9356788
-2.9387288
-2.9341488
-2.9387288
-2.9387288
-2.9387288
-2.9371988
-2.9371988
-2.9356788
-2.9387288
-2.9387288
-2.9387288
-2.9356788
-2.9417788
-2.9417788
-2.9387288
-2.9433088
-2.9417788
-2.9433088
-2.9371988
-2.9433088
-2.9433088
-2.9494088
-2.9433088
-2.9478788
-2.9448288
-2.9448288
-2.9509388
-2.9433088
-2.9448288
-2.9417788
-2.9478788
-2.9478788
-2.9494088
-2.9433088
-2.9417788
-2.9494088
-2.9494088
-2.9402588
-2.9417788
-2.9448288
-2.9433088
-2.9448288
-2.9433088
-2.9494088
-2.9402588
-2.9433088
-2.9402588
-2.9417788
-2.9402588
-2.9402588
-2.9417788
-2.9371988
-2.9417788
-2.9387288
-2.9417788
-2.9341488
-2.9326288
-2.9356788
-2.9402588
-2.9402588
-2.9402588
-2.9387288
-2.9433088
-2.9433088
-2.9433088
-2.9417788
-2.9433088
-2.9478788
-2.9402588
-2.9478788
-2.9417788
-2.9494088
-2.9417788
-2.9494088
-2.9448288
-2.9494088
-2.9494088
-2.9478788
-2.9433088
-2.9417788
-2.9509388
-2.9509388
-2.9509388
-2.9448288
-2.9478788
-2.9494088
-2.9494088
-2.9448288
-2.9433088
-2.9509388
-2.9478788
-2.9509388
-2.9478788
-2.9509388
-2.9433088
-2.9433088
-2.9402588
-2.9448288
-2.9433088
-2.9478788
-2.9448288
-2.9478788
-2.9494088
-2.9448288
-2.9509388
-2.9433088
-2.9448288
-2.9417788
-2.9509388
-2.9478788
-2.9478788
-2.9448288
-2.9478788
-2.9509388
-2.9433088
-2.9433088
-2.9478788
-2.9494088
-2.9433088
-2.9494088
-2.9494088
-2.9539888
-2.9478788
-2.9509388
-2.9509388
-2.9494088
-2.9509388
-2.9494088
-2.9494088
-2.9433088
-2.9509388
-2.9524588
-2.9509388
-2.9494088
-2.9539888
-2.9524588
-2.9524588
-2.9524588
-2.9524588
-2.9555088
-2.9555088
-2.9539888
-2.9539888
-2.9570388
-2.9509388
-2.9539888
-2.9494088
-2.9539888
-2.9478788
-2.9539888
-2.9509388
-2.9494088
-2.9539888
-2.9494088
-2.9539888
-2.9448288
-2.9478788
-2.9478788
-2.9494088
-2.9494088
-2.9494088
-2.9448288
-2.9478788
-2.9494088
-2.9494088
-2.9448288
-2.9494088
-2.9494088
-2.9417788
-2.9494088
-2.9448288
-2.9555088
-2.9448288
-2.9494088
-2.9478788
-2.9478788
-2.9555088
-2.9509388
-2.9524588
-2.9494088
-2.9539888
-2.9539888
-2.9555088
-2.9524588
-2.9555088
-2.9509388
-2.9570388
-2.9524588
-2.9478788
-2.9524588
-2.9570388
-2.9539888
-2.9494088
-2.9555088
-2.9494088
-2.9478788
-2.9448288
-2.9539888
-2.9494088
-2.9524588
-2.9494088
-2.9433088
-2.9524588
-2.9494088
-2.9524588
-2.9509388
-2.9417788
-2.9433088
-2.9478788
-2.9448288
-2.9478788
-2.9478788
-2.9494088
-2.9494088
-2.9509388
-2.9387288
-2.9448288
-2.9494088
-2.9402588
-2.9478788
-2.9448288
-2.9524588
-2.9478788
-2.9494088
-2.9494088
-2.9509388
-2.9509388
-2.9478788
-2.9494088
-2.9524588
-2.9509388
-2.9478788
-2.9524588
-2.9494088
-2.9509388
-2.9478788
-2.9509388
-2.9494088
-2.9478788
-2.9433088
-2.9539888
-2.9524588
-2.9524588
-2.9555088
-2.9494088
-2.9509388
-2.9524588
-2.9555088
-2.9539888
-2.9555088
-2.9524588
-2.9509388
-2.9539888
-2.9509388
-2.9539888
-2.9494088
-2.9509388
-2.9494088
-2.9494088
-2.9494088
-2.9478788
-2.9448288
-2.9448288
-2.9478788
-2.9478788
-2.9417788
-2.9494088
-2.9524588
-2.9433088
-2.9494088
-2.9448288
-2.9524588
-2.9417788
-2.9478788
-2.9448288
-2.9478788
-2.9509388
-2.9494088
-2.9448288
-2.9524588
-2.9478788
-2.9448288
-2.9524588
-2.9509388
-2.9539888
-2.9478788
-2.9555088
-2.9509388
-2.9524588
-2.9524588
-2.9555088
-2.9509388
-2.9509388
-2.9555088
-2.9494088
-2.9539888
-2.9448288
-2.9539888
-2.9478788
-2.9539888
-2.9509388
-2.9478788
-2.9539888
-2.9524588
-2.9494088
-2.9494088
-2.9524588
-2.9509388
-2.9539888
-2.9509388
-2.9539888
-2.9524588
-2.9509388
-2.9494088
-2.9494088
-2.9371988
-2.9478788
-2.9509388
-2.9433088
-2.9524588
-2.9478788
-2.9524588
-2.9433088
-2.9494088
-2.9448288
-2.9478788
-2.9509388
-2.9448288
-2.9448288
-2.9539888
-2.9478788
-2.9433088
-2.9478788
-2.9433088
-2.9478788
-2.9417788
-2.9448288
-2.9448288
-2.9417788
-2.9417788
-2.9509388
-2.9402588
-2.9402588
-2.9417788
-2.9402588
-2.9387288
-2.9402588
-2.9433088
-2.9402588
-2.9433088
-2.9433088
-2.9402588
-2.9478788
-2.9448288
-2.9356788
-2.9417788
-2.9433088
-2.9417788
-2.9433088
-2.9433088
-2.9448288
-2.9402588
-2.9417788
-2.9448288
-2.9433088
-2.9356788
-2.9417788
-2.9448288
-2.9402588
-2.9448288
-2.9433088
-2.9478788
-2.9387288
-2.9417788
-2.9402588
-2.9433088
-2.9448288
-2.9402588
-2.9417788
-2.9509388
-2.9417788
-2.9387288
-2.9448288
-2.9417788
-2.9433088
-2.9402588
-2.9402588
-2.9402588
-2.9387288
-2.9356788
-2.9494088
-2.9371988
-2.9356788
-2.9402588
-2.9341488
-2.9356788
-2.9371988
-2.9417788
-2.9356788
-2.9402588
-2.9402588
-2.9356788
-2.9402588
-2.9356788
-2.9310988
-2.9371988
-2.9402588
-2.9341488
-2.9371988
-2.9371988
-2.9371988
-2.9356788
-2.9356788
-2.9371988
-2.9371988
-2.9295688
-2.9371988
-2.9387288
-2.9356788
-2.9433088
-2.9356788
-2.9356788
-2.9310988
-2.9371988
-2.9341488
-2.9341488
-2.9371988
-2.9371988
-2.9387288
-2.9417788
-2.9387288
-2.9387288
-2.9417788
-2.9371988
-2.9402588
-2.9341488
-2.9402588
-2.9402588
-2.9417788
-2.9371988
-2.9524588
-2.9417788
-2.9387288
-2.9433088
-2.9387288
-2.9402588
-2.9387288
-2.9433088
-2.9433088
-2.9417788
-2.9417788
-2.9433088
-2.9478788
-2.9402588
-2.9326288
-2.9417788
-2.9433088
-2.9402588
-2.9417788
-2.9387288
-2.9448288
-2.9371988
-2.9417788
-2.9433088
-2.9433088
-2.9341488
-2.9433088
-2.9448288
-2.9433088
-2.9478788
-2.9417788
-2.9387288
-2.9402588
-2.9402588
-2.9387288
-2.9417788
-2.9433088
-2.9371988
-2.9402588
-2.9448288
-2.9402588
-2.9387288
-2.9417788
-2.9417788
-2.9417788
-2.9387288
-2.9433088
-2.9387288
-2.9402588
-2.9402588
-2.9539888
-2.9387288
-2.9387288
-2.9417788
-2.9371988
-2.9387288
-2.9433088
-2.9402588
-2.9402588
-2.9402588
-2.9356788
-2.9402588
-2.9448288
-2.9417788
-2.9417788
-2.9371988
-2.9417788
-2.9356788
-2.9402588
-2.9371988
-2.9448288
-2.9417788
-2.9417788
-2.9417788
-2.9417788
-2.9326288
-2.9433088
-2.9448288
-2.9417788
-2.9448288
-2.9433088
-2.9387288
-2.9387288
-2.9356788
-2.9341488
-2.9402588
-2.9417788
-2.9402588
-2.9417788
-2.9433088
-2.9433088
-2.9371988
-2.9433088
-2.9417788
-2.9402588
-2.9341488
-2.9387288
-2.9371988
-2.9371988
-2.9326288
-2.9448288
-2.9371988
-2.9341488
-2.9387288
-2.9326288
-2.9387288
-2.9371988
-2.9402588
-2.9402588
-2.9417788
-2.9326288
-2.9371988
-2.9402588
-2.9371988
-2.9341488
-2.9356788
-2.9387288
-2.9326288
-2.9371988
-2.9356788
-2.9433088
-2.9371988
-2.9387288
-2.9371988
-2.9417788
-2.9326288
-2.9448288
-2.9478788
-2.9433088
-2.9494088
-2.9478788
-2.9478788
-2.9494088
-2.9402588
-2.9448288
-2.9478788
-2.9448288
-2.9417788
-2.9433088
-2.9448288
-2.9433088
-2.9433088
-2.9448288
-2.9448288
-2.9478788
-2.9387288
-2.9448288
-2.9433088
-2.9448288
-2.9448288
-2.9539888
-2.9402588
-2.9417788
-2.9433088
-2.9356788
-2.9387288
-2.9387288
-2.9402588
-2.9433088
-2.9433088
-2.9371988
-2.9371988
-2.9478788
-2.9356788
-2.9326288
-2.9356788
-2.9341488
-2.9326288
-2.9356788
-2.9326288
-2.9387288
-2.9341488
-2.9341488
-2.9280488
-2.9371988
-2.9280488
-2.9356788
-2.9356788
-2.9341488
-2.9371988
-2.9310988
-2.9341488
-2.9326288
-2.9310988
-2.9295688
-2.9387288
-2.9356788
-2.9310988
-2.9341488
-2.9387288
-2.9356788
-2.9341488
-2.9341488
-2.9326288
-2.9371988
-2.9280488
-2.9387288
-2.9341488
-2.9402588
-2.9341488
-2.9417788
-2.9371988
-2.9371988
-2.9402588
-2.9310988
-2.9387288
-2.9341488
-2.9387288
-2.9417788
-2.9417788
-2.9371988
-2.9371988
-2.9433088
-2.9387288
-2.9326288
-2.9341488
-2.9341488
-2.9326288
-2.9341488
-2.9326288
-2.9356788
-2.9326288
-2.9341488
-2.9280488
-2.9326288
-2.9280488
-2.9326288
-2.9341488
-2.9310988
-2.9371988
-2.9356788
-2.9417788
-2.9371988
-2.9341488
-2.9356788
-2.9402588
-2.9356788
-2.9387288
-2.9371988
-2.9387288
-2.9371988
-2.9326288
-2.9371988
-2.9371988
-2.9387288
-2.9341488
-2.9387288
-2.9371988
-2.9433088
-2.9356788
-2.9433088
-2.9371988
-2.9371988
-2.9387288
-2.9341488
-2.9356788
-2.9310988
-2.9326288
-2.9356788
-2.9356788
-2.9295688
-2.9295688
-2.9310988
-2.9341488
-2.9326288
-2.9265188
-2.9326288
-2.9295688
-2.9341488
-2.9310988
-2.9356788
-2.9326288
-2.9310988
-2.9249988
-2.9326288
-2.9326288
-2.9356788
-2.9341488
-2.9295688
-2.9341488
-2.9356788
-2.9402588
-2.9341488
-2.9295688
-2.9341488
-2.9387288
-2.9310988
-2.9341488
-2.9341488
-2.9356788
-2.9356788
-2.9310988
-2.9326288
-2.9310988
-2.9356788
-2.9295688
-2.9371988
-2.9341488
-2.9356788
-2.9295688
-2.9326288
-2.9341488
-2.9341488
-2.9371988
-2.9280488
-2.9310988
-2.9249988
-2.9310988
-2.9310988
-2.9341488
-2.9310988
-2.9310988
-2.9310988
-2.9326288
-2.9326288
-2.9280488
-2.9326288
-2.9326288
-2.9310988
-2.9326288
-2.9326288
-2.9280488
-2.9310988
-2.9280488
-2.9326288
-2.9295688
-2.9310988
-2.9280488
-2.9249988
-2.9310988
-2.9310988
-2.9356788
-2.9326288
-2.9280488
-2.9295688
-2.9280488
-2.9310988
-2.9310988
-2.9310988
-2.9326288
-2.9356788
-2.9310988
-2.9295688
-2.9310988
-2.9310988
-2.9265188
-2.9295688
-2.9310988
-2.9356788
-2.9234688
-2.9249988
-2.9249988
-2.9265188
-2.9310988
-2.9280488
-2.9234688
-2.9219388
-2.9295688
-2.9295688
-2.9295688
-2.9280488
-2.9310988
-2.9295688
-2.9280488
-2.9249988
-2.9234688
-2.9249988
-2.9295688
-2.9249988
-2.9219388
-2.9295688
-2.9234688
-2.9249988
-2.9204188
-2.9280488
-2.9234688
-2.9234688
-2.9249988
-2.9204188
-2.9234688
-2.9265188
-2.9265188
-2.9249988
-2.9219388
-2.9188888
-2.9219388
-2.9204188
-2.9234688
-2.9188888
-2.9234688
-2.9219388
-2.9188888
-2.9173688
-2.9188888
-2.9188888
-2.9143188
-2.9219388
-2.9249988
-2.9280488
-2.9204188
-2.9204188
-2.9219388
-2.9234688
-2.9234688
-2.9219388
-2.9188888
-2.9143188
-2.9204188
-2.9234688
-2.9219388
-2.9188888
-2.9143188
-2.9173688
-2.9143188
-2.9127888
-2.9173688
-2.9143188
-2.9219388
-2.9173688
-2.9127888
-2.9234688
-2.9112588
-2.9143188
-2.9112588
-2.9143188
-2.9112588
-2.9143188
-2.9097388
-2.9112588
-2.9112588
-2.9143188
-2.9127888
-2.9097388
-2.9066888
-2.9066888
-2.9112588
-2.9082088
-2.9127888
-2.9097388
-2.9097388
-2.9112588
-2.9112588
-2.9082088
-2.9112588
-2.9173688
-2.9097388
-2.9143188
-2.9112588
-2.9188888
-2.9082088
-2.9127888
-2.9112588
-2.9112588
-2.9188888
-2.9127888
-2.9127888
-2.9143188
-2.9173688
-2.9127888
-2.9127888
-2.9127888
-2.9173688
-2.9173688
-2.9127888
-2.9143188
-2.9143188
-2.9127888
-2.9204188
-2.9127888
-2.9127888
-2.9204188
-2.9127888
-2.9143188
-2.9112588
-2.9188888
-2.9127888
-2.9143188
-2.9143188
-2.9143188
-2.9173688
-2.9173688
-2.9082088
-2.9097388
-2.9188888
-2.9127888
-2.9127888
-2.9127888
-2.9173688
-2.9127888
-2.9143188
-2.9143188
-2.9143188
-2.9066888
-2.9112588
-2.9127888
-2.9097388
-2.9143188
-2.9127888
-2.9188888
-2.9112588
-2.9188888
-2.9173688
-2.9188888
-2.9188888
-2.9127888
-2.9143188
-2.9188888
-2.9188888
-2.9143188
-2.9127888
-2.9112588
-2.9127888
-2.9143188
-2.9173688
-2.9112588
-2.9143188
-2.9127888
-2.9219388
-2.9097388
-2.9173688
-2.9173688
-2.9127888
-2.9188888
-2.9112588
-2.9219388
-2.9188888
-2.9204188
-2.9188888
-2.9173688
-2.9188888
-2.9204188
-2.9112588
-2.9188888
-2.9204188
-2.9204188
-2.9219388
-2.9204188
-2.9249988
-2.9188888
-2.9204188
-2.9204188
-2.9219388
-2.9097388
-2.9188888
-2.9219388
-2.9127888
-2.9234688
-2.9204188
-2.9234688
-2.9234688
-2.9249988
-2.9188888
-2.9234688
-2.9249988
-2.9219388
-2.9234688
-2.9341488
-2.9295688
-2.9234688
-2.9249988
-2.9249988
-2.9219388
-2.9204188
-2.9204188
-2.9188888
-2.9143188
-2.9143188
-2.9265188
-2.9188888
-2.9173688
-2.9204188
-2.9143188
-2.9173688
-2.9112588
-2.9188888
-2.9173688
-2.9204188
-2.9143188
-2.9112588
-2.9188888
-2.9143188
-2.9097388
-2.9188888
-2.9219388
-2.9219388
-2.9204188
-2.9173688
-2.9219388
-2.9234688
-2.9234688
-2.9249988
-2.9265188
-2.9127888
-2.9265188
-2.9249988
-2.9219388
-2.9249988
-2.9295688
-2.9265188
-2.9204188
-2.9219388
-2.9204188
-2.9234688
-2.9234688
-2.9219388
-2.9234688
-2.9280488
-2.9249988
-2.9204188
-2.9234688
-2.9204188
-2.9265188
-2.9204188
-2.9188888
-2.9188888
-2.9234688
-2.9219388
-2.9341488
-2.9188888
-2.9249988
-2.9234688
-2.9188888
-2.9188888
-2.9204188
-2.9219388
-2.9173688
-2.9204188
-2.9143188
-2.9173688
-2.9204188
-2.9204188
-2.9112588
-2.9173688
-2.9188888
-2.9127888
-2.9143188
-2.9143188
-2.9173688
-2.9112588
-2.9127888
-2.9112588
-2.9143188
-2.9021088
-2.9143188
-2.9188888
-2.9143188
-2.9204188
-2.9188888
-2.9127888
-2.9127888
-2.9082088
-2.9097388
-2.9127888
-2.9143188
-2.9112588
-2.9097388
-2.9188888
-2.9127888
-2.9127888
-2.9143188
-2.9143188
-2.9188888
-2.9097388
-2.9173688
-2.9127888
-2.9127888
-2.9143188
-2.9295688
-2.9143188
-2.9173688
-2.9219388
-2.9173688
-2.9188888
-2.9219388
-2.9188888
-2.9204188
-2.9188888
-2.9127888
-2.9173688
-2.9204188
-2.9173688
-2.9127888
-2.9173688
-2.9188888
-2.9143188
-2.9188888
-2.9173688
-2.9204188
-2.9127888
-2.9173688
-2.9204188
-2.9204188
-2.9066888
-2.9188888
-2.9219388
-2.9143188
-2.9188888
-2.9188888
-2.9173688
-2.9127888
-2.9143188
-2.9112588
-2.9143188
-2.9127888
-2.9112588
-2.9127888
-2.9143188
-2.9143188
-2.9112588
-2.9143188
-2.9097388
-2.9112588
-2.9082088
-2.9127888
-2.9143188
-2.9188888
-2.9143188
-2.9280488
-2.9204188
-2.9188888
-2.9219388
-2.9188888
-2.9173688
-2.9219388
-2.9265188
-2.9249988
-2.9234688
-2.9204188
-2.9219388
-2.9219388
-2.9204188
-2.9173688
-2.9143188
-2.9143188
-2.9143188
-2.9127888
-2.9173688
-2.9204188
-2.9143188
-2.9173688
-2.9143188
-2.9173688
-2.9051588
-2.9173688
-2.9173688
-2.9112588
-2.9143188
-2.9112588
-2.9127888
-2.9097388
-2.9082088
-2.9082088
-2.9127888
-2.9097388
-2.9082088
-2.9112588
-2.9173688
-2.9143188
-2.9097388
-2.9173688
-2.9127888
-2.9127888
-2.9097388
-2.9112588
-2.9127888
-2.9127888
-2.9097388
-2.9234688
-2.9097388
-2.9127888
-2.9173688
-2.9112588
-2.9112588
-2.9173688
-2.9204188
-2.9173688
-2.9143188
-2.9173688
-2.9188888
-2.9219388
-2.9204188
-2.9127888
-2.9188888
-2.9219388
-2.9173688
-2.9188888
-2.9173688
-2.9234688
-2.9173688
-2.9188888
-2.9143188
-2.9188888
-2.9082088
-2.9204188
-2.9188888
-2.9127888
-2.9204188
-2.9219388
-2.9249988
-2.9219388
-2.9188888
-2.9188888
-2.9234688
-2.9204188
-2.9204188
-2.9234688
-2.9249988
-2.9204188
-2.9234688
-2.9219388
-2.9188888
-2.9188888
-2.9127888
-2.9188888
-2.9143188
-2.9143188
-2.9097388
-2.9234688
-2.9127888
-2.9127888
-2.9188888
-2.9143188
-2.9173688
-2.9173688
-2.9143188
-2.9188888
-2.9188888
-2.9112588
-2.9127888
-2.9143188
-2.9143188
-2.9112588
-2.9066888
-2.9112588
-2.9066888
-2.9097388
-2.9082088
-2.9127888
-2.9082088
-2.9082088
-2.9036288
-2.9127888
-2.9036288
-2.9097388
-2.9143188
-2.9082088
-2.9127888
-2.9143188
-2.9173688
-2.9143188
-2.9173688
-2.9173688
-2.9219388
-2.9188888
-2.9127888
-2.9143188
-2.9219388
-2.9219388
-2.9188888
-2.9219388
-2.9143188
-2.9173688
-2.9173688
-2.9234688
-2.9204188
-2.9234688
-2.9188888
-2.9234688
-2.9188888
-2.9204188
-2.9204188
-2.9173688
-2.9204188
-2.9173688
-2.9204188
-2.9219388
-2.9219388
-2.9219388
-2.9234688
-2.9234688
-2.9188888
-2.9127888
-2.9173688
-2.9204188
-2.9204188
-2.9188888
-2.9204188
-2.9204188
-2.9188888
-2.9219388
-2.9188888
-2.9188888
-2.9173688
-2.9204188
-2.9219388
-2.9143188
-2.9234688
-2.9219388
-2.9249988
-2.9188888
-2.9173688
-2.9127888
-2.9188888
-2.9127888
-2.9143188
-2.9143188
-2.9249988
-2.9219388
-2.9188888
-2.9173688
-2.9173688
-2.9173688
-2.9173688
-2.9204188
-2.9173688
-2.9204188
-2.9143188
-2.9173688
-2.9143188
-2.9143188
-2.9188888
-2.9127888
-2.9173688
-2.9112588
-2.9204188
-2.9219388
-2.9204188
-2.9127888
-2.9188888
-2.9173688
-2.9188888
-2.9127888
-2.9097388
-2.9143188
-2.9143188
-2.9097388
-2.9112588
-2.9173688
-2.9097388
-2.9082088
-2.9066888
-2.9127888
-2.9097388
-2.9112588
-2.9127888
-2.9112588
-2.9143188
-2.9143188
-2.9173688
-2.9127888
-2.9112588
-2.9097388
-2.9188888
-2.9173688
-2.9173688
-2.9188888
-2.9204188
-2.9204188
-2.9143188
-2.9173688
-2.9188888
-2.9173688
-2.9112588
-2.9143188
-2.9188888
-2.9188888
-2.9127888
-2.9188888
-2.9143188
-2.9112588
-2.9143188
-2.9097388
-2.9097388
-2.9036288
-2.9112588
-2.9112588
-2.9188888
-2.9127888
-2.9097388
-2.9082088
-2.9097388
-2.9112588
-2.9097388
-2.9127888
-2.9188888
-2.9173688
-2.9112588
-2.9173688
-2.9127888
-2.9112588
-2.9097388
-2.9173688
-2.9097388
-2.9112588
-2.9127888
-2.9066888
-2.9112588
-2.9097388
-2.9127888
-2.9066888
-2.9066888
-2.9036288
-2.9066888
-2.9051588
-2.9066888
-2.9066888
-2.9066888
-2.9112588
-2.9127888
-2.9051588
-2.9097388
-2.9097388
-2.9051588
-2.9082088
-2.9143188
-2.9204188
-2.9082088
-2.9097388
-2.9082088
-2.9097388
-2.9112588
-2.9097388
-2.9066888
-2.9051588
-2.9112588
-2.9127888
-2.9112588
-2.9066888
-2.9112588
-2.9112588
-2.9112588
-2.9066888
-2.9066888
-2.9082088
-2.9097388
-2.9066888
-2.9021088
-2.9097388
-2.9051588
-2.9036288
-2.9005788
-2.9097388
-2.9051588
-2.9066888
-2.9082088
-2.9021088
-2.9127888
-2.9112588
-2.9143188
-2.9127888
-2.9066888
-2.9051588
-2.9112588
-2.9082088
-2.9112588
-2.9066888
-2.9082088
-2.9127888
-2.9112588
-2.9036288
-2.9082088
-2.9097388
-2.9051588
-2.9127888
-2.9066888
-2.9127888
-2.9066888
-2.9112588
-2.9097388
-2.9112588
-2.9127888
-2.9127888
-2.9127888
-2.9173688
-2.9143188
-2.9112588
-2.9097388
-2.9097388
-2.9097388
-2.9112588
-2.9127888
-2.9127888
-2.9097388
-2.9097388
-2.9143188
-2.9143188
-2.9082088
-2.9112588
-2.9082088
-2.9112588
-2.9051588
-2.9127888
-2.9143188
-2.9127888
-2.9112588
-2.9066888
-2.9127888
-2.9112588
-2.9097388
-2.9112588
-2.9127888
-2.9127888
-2.9143188
-2.9143188
-2.9173688
-2.9112588
-2.9173688
-2.9143188
-2.9127888
-2.9097388
-2.9188888
-2.9219388
-2.9112588
-2.9204188
-2.9143188
-2.9204188
-2.9127888
-2.9112588
-2.9112588
-2.9127888
-2.9173688
-2.9112588
-2.9112588
-2.9188888
-2.9143188
-2.9143188
-2.9204188
-2.9188888
-2.9143188
-2.9173688
-2.9188888
-2.9143188
-2.9112588
-2.9127888
-2.9219388
-2.9127888
-2.9112588
-2.9188888
-2.9097388
-2.9188888
-2.9112588
-2.9204188
-2.9173688
-2.9204188
-2.9127888
-2.9112588
-2.9127888
-2.9143188
-2.9066888
-2.9143188
-2.9127888
-2.9097388
-2.9127888
-2.9112588
-2.9188888
-2.9127888
-2.9143188
-2.9143188
-2.9143188
-2.9036288
-2.9143188
-2.9143188
-2.9097388
-2.9143188
-2.9112588
-2.9173688
-2.9097388
-2.9112588
-2.9127888
-2.9127888
-2.9173688
-2.9173688
-2.9173688
-2.9280488
-2.9204188
-2.9173688
-2.9219388
-2.9188888
-2.9234688
-2.9173688
-2.9188888
-2.9219388
-2.9219388
-2.9188888
-2.9295688
-2.9188888
-2.9173688
-2.9234688
-2.9188888
-2.9173688
-2.9173688
-2.9219388
-2.9204188
-2.9204188
-2.9204188
-2.9173688
-2.9173688
-2.9188888
-2.9082088
-2.9127888
-2.9173688
-2.9127888
-2.9143188
-2.9143188
-2.9219388
-2.9143188
-2.9188888
-2.9204188
-2.9188888
-2.9082088
-2.9143188
-2.9219388
-2.9188888
-2.9234688
-2.9204188
-2.9234688
-2.9143188
-2.9219388
-2.9204188
-2.9188888
-2.9204188
-2.9173688
-2.9219388
-2.9280488
-2.9265188
-2.9219388
-2.9265188
-2.9249988
-2.9249988
-2.9234688
-2.9234688
-2.9204188
-2.9173688
-2.9204188
-2.9326288
-2.9219388
-2.9188888
-2.9234688
-2.9204188
-2.9173688
-2.9204188
-2.9234688
-2.9249988
-2.9249988
-2.9234688
-2.9234688
-2.9295688
-2.9280488
-2.9204188
-2.9249988
-2.9280488
-2.9249988
-2.9265188
-2.9265188
-2.9280488
-2.9265188
-2.9295688
-2.9265188
-2.9265188
-2.9143188
-2.9249988
-2.9234688
-2.9249988
-2.9295688
-2.9265188
-2.9265188
-2.9249988
-2.9219388
-2.9249988
-2.9265188
-2.9249988
-2.9219388
-2.9249988
-2.9280488
-2.9219388
-2.9188888
-2.9249988
-2.9204188
-2.9173688
-2.9143188
-2.9234688
-2.9188888
-2.9188888
-2.9188888
-2.9326288
-2.9234688
-2.9204188
-2.9219388
-2.9234688
-2.9219388
-2.9219388
-2.9234688
-2.9219388
-2.9219388
-2.9204188
-2.9219388
-2.9280488
-2.9234688
-2.9204188
-2.9219388
-2.9265188
-2.9234688
-2.9219388
-2.9249988
-2.9280488
-2.9234688
-2.9265188
-2.9249988
-2.9234688
-2.9127888
-2.9265188
-2.9249988
-2.9234688
-2.9295688
-2.9280488
-2.9249988
-2.9234688
-2.9249988
-2.9219388
-2.9280488
-2.9249988
-2.9249988
-2.9265188
-2.9280488
-2.9295688
-2.9249988
-2.9295688
-2.9265188
-2.9249988
-2.9188888
-2.9249988
-2.9219388
-2.9265188
-2.9234688
-2.9326288
-2.9234688
-2.9249988
-2.9295688
-2.9234688
-2.9249988
-2.9280488
-2.9265188
-2.9280488
-2.9280488
-2.9249988
-2.9265188
-2.9295688
-2.9234688
-2.9265188
-2.9265188
-2.9280488
-2.9249988
-2.9310988
-2.9295688
-2.9371988
-2.9280488
-2.9295688
-2.9280488
-2.9310988
-2.9188888
-2.9280488
-2.9265188
-2.9249988
-2.9295688
-2.9249988
-2.9249988
-2.9204188
-2.9219388
-2.9219388
-2.9249988
-2.9234688
-2.9219388
-2.9204188
-2.9234688
-2.9219388
-2.9188888
-2.9219388
-2.9188888
-2.9204188
-2.9127888
-2.9219388
-2.9204188
-2.9234688
-2.9173688
-2.9295688
-2.9173688
-2.9219388
-2.9234688
-2.9188888
-2.9204188
-2.9219388
-2.9234688
-2.9219388
-2.9234688
-2.9188888
-2.9204188
-2.9249988
-2.9249988
-2.9173688
-2.9173688
-2.9173688
-2.9112588
-2.9173688
-2.9143188
-2.9188888
-2.9173688
-2.9188888
-2.9143188
-2.9143188
-2.9066888
-2.9143188
-2.9173688
-2.9127888
-2.9204188
-2.9188888
-2.9143188
-2.9173688
-2.9112588
-2.9143188
-2.9173688
-2.9173688
-2.9127888
-2.9173688
-2.9204188
-2.9204188
-2.9204188
-2.9219388
-2.9143188
-2.9188888
-2.9127888
-2.9188888
-2.9173688
-2.9219388
-2.9188888
-2.9234688
-2.9173688
-2.9143188
-2.9234688
-2.9127888
-2.9112588
-2.9112588
-2.9127888
-2.9173688
-2.9173688
-2.9204188
-2.9173688
-2.9219388
-2.9188888
-2.9143188
-2.9188888
-2.9188888
-2.9143188
-2.9127888
-2.9127888
-2.9173688
-2.9112588
-2.9097388
-2.9051588
-2.9127888
-2.9066888
-2.9188888
-2.9127888
-2.9097388
-2.9188888
-2.9112588
-2.9173688
-2.9127888
-2.9082088
-2.9097388
-2.9112588
-2.9112588
-2.9082088
-2.9082088
-2.9188888
-2.9188888
-2.9143188
-2.9204188
-2.9127888
-2.9173688
-2.9127888
-2.9173688
-2.9143188
-2.9219388
-2.9173688
-2.9219388
-2.9188888
-2.9143188
-2.9219388
-2.9127888
-2.9173688
-2.9112588
-2.9173688
-2.9188888
-2.9204188
-2.9143188
-2.9143188
-2.9188888
-2.9173688
-2.9127888
-2.9112588
-2.9143188
-2.9188888
-2.9173688
-2.9143188
-2.9204188
-2.9143188
-2.9188888
-2.9143188
-2.9188888
-2.9127888
-2.9143188
-2.9188888
-2.9127888
-2.9204188
-2.9204188
-2.9219388
-2.9143188
-2.9082088
-2.9112588
-2.9173688
-2.9112588
-2.9112588
-2.9082088
-2.9127888
-2.9143188
-2.9143188
-2.9127888
-2.9112588
-2.9127888
-2.9082088
-2.9097388
-2.9082088
-2.9127888
-2.9066888
-2.9082088
-2.9097388
-2.9112588
-2.9143188
-2.9082088
-2.9112588
-2.9066888
-2.9112588
-2.9127888
-2.9127888
-2.9082088
-2.9082088
-2.9112588
-2.9112588
-2.9066888
-2.9066888
-2.9112588
-2.9127888
-2.9082088
-2.9051588
-2.9112588
-2.9082088
-2.9097388
-2.9051588
-2.9097388
-2.9066888
-2.9082088
-2.9097388
-2.9097388
-2.9112588
-2.9127888
-2.9173688
-2.9066888
-2.9112588
-2.9051588
-2.9127888
-2.9097388
-2.9127888
-2.9127888
-2.9188888
-2.9219388
-2.9188888
-2.9173688
-2.9204188
-2.9219388
-2.9143188
-2.9234688
-2.9234688
-2.9234688
-2.9173688
-2.9173688
-2.9204188
-2.9143188
-2.9234688
-2.9143188
-2.9143188
-2.9112588
-2.9204188
-2.9188888
-2.9188888
-2.9143188
-2.9173688
-2.9173688
-2.9188888
-2.9127888
-2.9173688
-2.9188888
-2.9188888
-2.9173688
-2.9143188
-2.9219388
-2.9143188
-2.9127888
-2.9097388
-2.9173688
-2.9127888
-2.9143188
-2.9143188
-2.9097388
-2.9127888
-2.9143188
-2.9219388
-2.9112588
-2.9143188
-2.9097388
-2.9127888
-2.9097388
-2.9082088
-2.9066888
-2.9097388
-2.9097388
-2.9082088
-2.9066888
-2.9066888
-2.9097388
-2.9066888
-2.9112588
-2.9112588
-2.9143188
-2.9082088
-2.9097388
-2.9082088
-2.9097388
-2.9143188
-2.9127888
-2.9082088
-2.9066888
-2.9127888
-2.9112588
-2.9188888
-2.9112588
-2.9143188
-2.9112588
-2.9219388
-2.9173688
-2.9143188
-2.9143188
-2.9204188
-2.9173688
-2.9097388
-2.9143188
-2.9082088
-2.9097388
-2.9051588
-2.9127888
-2.9112588
-2.9112588
-2.9112588
-2.9066888
-2.9112588
-2.9112588
-2.9112588
-2.9097388
-2.9112588
-2.9066888
-2.9127888
-2.9127888
-2.9127888
-2.9112588
-2.9127888
-2.9127888
-2.9143188
-2.9097388
-2.9127888
-2.9143188
-2.9112588
-2.9173688
-2.9143188
-2.9173688
-2.9097388
-2.9143188
-2.9143188
-2.9112588
-2.9173688
-2.9127888
-2.9127888
-2.9188888
-2.9143188
-2.9112588
-2.9127888
-2.9112588
-2.9127888
-2.9143188
-2.9127888
-2.9127888
-2.9127888
-2.9097388
-2.9219388
-2.9143188
-2.9127888
-2.9188888
-2.9143188
-2.9173688
-2.9066888
-2.9143188
-2.9127888
-2.9173688
-2.9127888
-2.9112588
-2.9127888
-2.9127888
-2.9036288
-2.9066888
-2.9097388
-2.9082088
-2.9097388
-2.9066888
-2.9112588
-2.9066888
-2.9082088
-2.9082088
-2.9082088
-2.9005788
-2.9082088
-2.9112588
-2.9066888
-2.9097388
-2.9051588
-2.9112588
-2.9066888
-2.9082088
-2.9051588
-2.9066888
-2.9097388
-2.9036288
-2.9082088
-2.9143188
-2.9112588
-2.9066888
-2.9127888
-2.9082088
-2.9097388
-2.9066888
-2.9112588
-2.9112588
-2.9082088
-2.9082088
-2.9188888
-2.9066888
-2.9082088
-2.9112588
-2.9066888
-2.9051588
-2.9066888
-2.9112588
-2.9097388
-2.9112588
-2.9112588
-2.9097388
-2.9127888
-2.9112588
-2.9036288
-2.9097388
-2.9143188
-2.9127888
-2.9143188
-2.9127888
-2.9143188
-2.9173688
-2.9127888
-2.9112588
-2.9097388
-2.9021088
-2.9097388
-2.9082088
-2.9082088
-2.9127888
-2.9112588
-2.9188888
-2.9112588
-2.9097388
-2.9112588
-2.9112588
-2.9143188
-2.9082088
-2.9097388
-2.9204188
-2.9097388
-2.9082088
-2.9173688
-2.9112588
-2.9143188
-2.9066888
-2.9097388
-2.9127888
-2.9127888
-2.9127888
-2.9234688
-2.9127888
-2.9112588
-2.9143188
-2.9112588
-2.9127888
-2.9112588
-2.9219388
-2.9188888
-2.9188888
-2.9143188
-2.9127888
-2.9143188
-2.9112588
-2.9097388
-2.9112588
-2.9173688
-2.9097388
-2.9127888
-2.9112588
-2.9188888
-2.9112588
-2.9143188
-2.9127888
-2.9112588
-2.9021088
-2.9082088
-2.9127888
-2.9112588
-2.9143188
-2.9082088
-2.9097388
-2.9066888
-2.9082088
-2.9066888
-2.9097388
-2.9112588
-2.9112588
-2.9112588
-2.9173688
-2.9127888
-2.9112588
-2.9173688
-2.9112588
-2.9127888
-2.9143188
-2.9143188
-2.9112588
-2.9097388
-2.9097388
-2.9219388
-2.9143188
-2.9097388
-2.9127888
-2.9097388
-2.9097388
-2.9112588
-2.9143188
-2.9127888
-2.9143188
-2.9097388
-2.9143188
-2.9143188
-2.9127888
-2.9066888
-2.9112588
-2.9112588
-2.9082088
-2.9097388
-2.9097388
-2.9127888
-2.9082088
-2.9097388
-2.9082088
-2.9127888
-2.8975288
-2.9082088
-2.9112588
-2.9066888
-2.9097388
-2.9112588
-2.9097388
-2.9051588
-2.9051588
-2.9066888
-2.9082088
-2.9082088
-2.9051588
-2.9082088
-2.9112588
-2.9097388
-2.9051588
-2.9082088
-2.9082088
-2.9127888
-2.9066888
-2.9082088
-2.9066888
-2.9112588
-2.9082088
-2.9204188
-2.9082088
-2.9097388
-2.9097388
-2.9036288
-2.9082088
-2.9112588
-2.9097388
-2.9112588
-2.9112588
-2.9097388
-2.9097388
-2.9127888
-2.9082088
-2.9066888
-2.9127888
-2.9127888
-2.9051588
-2.9066888
-2.9066888
-2.9112588
-2.9051588
-2.9066888
-2.9066888
-2.9112588
-2.9005788
-2.9082088
-2.9127888
-2.9066888
-2.9097388
-2.9097388
-2.9066888
-2.9082088
-2.9051588
-2.9051588
-2.9097388
-2.9112588
-2.9066888
-2.9082088
-2.9097388
-2.9097388
-2.9051588
-2.9127888
-2.9082088
-2.9082088
-2.9066888
-2.9127888
-2.9097388
-2.9173688
-2.9127888
-2.9204188
-2.9127888
-2.9097388
-2.9173688
-2.9082088
-2.9127888
-2.9127888
-2.9143188
-2.9173688
-2.9173688
-2.9112588
-2.9112588
-2.9143188
-2.9112588
-2.9036288
-2.9082088
-2.9112588
-2.9051588
-2.9112588
-2.9097388
-2.9112588
-2.9097388
-2.9097388
-2.9082088
-2.9112588
-2.9005788
-2.9097388
-2.9112588
-2.9082088
-2.9112588
-2.9082088
-2.9112588
-2.9051588
-2.9066888
-2.9051588
-2.9097388
-2.9021088
-2.9036288
-2.9021088
-2.9082088
-2.9051588
-2.9036288
-2.9082088
-2.9082088
-2.9066888
-2.9051588
-2.9082088
-2.9066888
-2.9097388
-2.9066888
-2.9173688
-2.9112588
-2.9082088
-2.9112588
-2.9051588
-2.9082088
-2.9066888
-2.9082088
-2.9112588
-2.9112588
-2.9097388
-2.9051588
-2.9112588
-2.9082088
-2.9051588
-2.9036288
-2.9082088
-2.9051588
-2.9051588
-2.9051588
-2.9097388
-2.9036288
-2.9036288
-2.9005788
-2.9066888
-2.8990588
-2.9036288
-2.9051588
-2.9021088
-2.9051588
-2.9021088
-2.9097388
-2.9036288
-2.9005788
-2.8959988
-2.8990588
-2.8975288
-2.8975288
-2.9005788
-2.9021088
-2.9021088
-2.8990588
-2.9051588
-2.8990588
-2.9021088
-2.8975288
-2.8990588
-2.9005788
-2.9066888
-2.9005788
-2.9051588
-2.9036288
-2.8990588
-2.9036288
-2.8990588
-2.9005788
-2.8929488
-2.9021088
-2.9066888
-2.9036288
-2.8990588
-2.9005788
-2.8990588
-2.9005788
-2.8975288
-2.8975288
-2.8990588
-2.9005788
-2.9021088
-2.9021088
-2.9097388
-2.9005788
-2.9036288
-2.9021088
-2.9036288
-2.8975288
-2.9021088
-2.9066888
-2.9036288
-2.9082088
-2.9051588
-2.9143188
-2.9051588
-2.9066888
-2.9082088
-2.9082088
-2.9082088
-2.9051588
-2.9097388
-2.9112588
-2.9127888
-2.9097388
-2.9097388
-2.9097388
-2.9082088
-2.9036288
-2.9066888
-2.9082088
-2.9097388
-2.9066888
-2.9082088
-2.9066888
-2.9036288
-2.9066888
-2.9036288
-2.9021088
-2.8990588
-2.9021088
-2.9051588
-2.9082088
-2.9051588
-2.9066888
-2.9066888
-2.9082088
-2.9036288
-2.9036288
-2.9051588
-2.9082088
-2.9051588
-2.9051588
-2.9082088
-2.9066888
-2.9036288
-2.8990588
-2.9097388
-2.9051588
-2.9051588
-2.9066888
-2.9051588
-2.9082088
-2.9066888
-2.9112588
-2.9066888
-2.9066888
-2.9051588
-2.9127888
-2.9112588
-2.9082088
-2.9066888
-2.9097388
-2.9082088
-2.9097388
-2.9097388
-2.9082088
-2.9097388
-2.9051588
-2.9097388
-2.9082088
-2.9143188
-2.9082088
-2.9112588
-2.9097388
-2.9097388
-2.9127888
-2.9051588
-2.9082088
-2.9036288
-2.9082088
-2.9082088
-2.9097388
-2.9051588
-2.9066888
-2.9051588
-2.9051588
-2.9066888
-2.9066888
-2.9097388
-2.9127888
-2.9082088
-2.9051588
-2.9097388
-2.9082088
-2.9097388
-2.9036288
-2.9127888
-2.9112588
-2.9097388
-2.9097388
-2.9051588
-2.9082088
-2.9066888
-2.9066888
-2.9036288
-2.9036288
-2.9066888
-2.9082088
-2.9036288
-2.9051588
-2.9066888
-2.9082088
-2.9082088
-2.9082088
-2.9036288
-2.9112588
-2.9127888
-2.9143188
-2.9173688
-2.9143188
-2.9188888
-2.9097388
-2.9097388
-2.9127888
-2.9127888
-2.9204188
-2.9097388
-2.9097388
-2.9082088
-2.9112588
-2.9097388
-2.9097388
-2.9112588
-2.9127888
-2.9112588
-2.9127888
-2.9112588
-2.9173688
-2.9143188
-2.9188888
-2.9173688
-2.9112588
-2.9173688
-2.9112588
-2.9143188
-2.9112588
-2.9143188
-2.9082088
-2.9127888
-2.9112588
-2.9112588
-2.9173688
-2.9143188
-2.9097388
-2.9097388
-2.9097388
-2.9127888
-2.9127888
-2.9112588
-2.9112588
-2.9112588
-2.9143188
-2.9127888
-2.9143188
-2.9082088
-2.9127888
-2.9143188
-2.9082088
-2.9173688
-2.9127888
-2.9204188
-2.9112588
-2.9143188
-2.9143188
-2.9173688
-2.9188888
-2.9143188
-2.9143188
-2.9204188
-2.9143188
-2.9143188
-2.9143188
-2.9127888
-2.9127888
-2.9173688
-2.9204188
-2.9127888
-2.9143188
-2.9188888
-2.9234688
-2.9188888
-2.9143188
-2.9204188
-2.9188888
-2.9204188
-2.9143188
-2.9219388
-2.9188888
-2.9188888
-2.9173688
-2.9127888
-2.9188888
-2.9173688
-2.9082088
-2.9082088
-2.9173688
-2.9112588
-2.9127888
-2.9143188
-2.9173688
-2.9143188
-2.9173688
-2.9173688
-2.9219388
-2.9097388
-2.9188888
-2.9234688
-2.9173688
-2.9249988
-2.9265188
-2.9249988
-2.9204188
-2.9249988
-2.9219388
-2.9265188
-2.9265188
-2.9249988
-2.9249988
-2.9326288
-2.9249988
-2.9234688
-2.9249988
-2.9204188
-2.9265188
-2.9204188
-2.9249988
-2.9219388
-2.9204188
-2.9204188
-2.9265188
-2.9188888
-2.9204188
-2.9204188
-2.9188888
-2.9188888
-2.9143188
-2.9219388
-2.9188888
-2.9219388
-2.9204188
-2.9143188
-2.9204188
-2.9143188
-2.9097388
-2.9127888
-2.9204188
-2.9143188
-2.9143188
-2.9173688
-2.9204188
-2.9173688
-2.9173688
-2.9173688
-2.9188888
-2.9066888
-2.9112588
-2.9143188
-2.9143188
-2.9173688
-2.9188888
-2.9143188
-2.9143188
-2.9173688
-2.9127888
-2.9127888
-2.9143188
-2.9127888
-2.9127888
-2.9234688
-2.9188888
-2.9127888
-2.9204188
-2.9127888
-2.9173688
-2.9127888
-2.9188888
-2.9143188
-2.9097388
-2.9127888
-2.9219388
-2.9112588
-2.9112588
-2.9173688
-2.9112588
-2.9127888
-2.9097388
-2.9188888
-2.9127888
-2.9173688
-2.9112588
-2.9127888
-2.9173688
-2.9143188
-2.9112588
-2.9127888
-2.9173688
-2.9112588
-2.9173688
-2.9127888
-2.9112588
-2.9127888
-2.9188888
-2.9127888
-2.9173688
-2.9051588
-2.9173688
-2.9143188
-2.9112588
-2.9127888
-2.9127888
-2.9127888
-2.9112588
-2.9127888
-2.9097388
-2.9173688
-2.9127888
-2.9112588
-2.9143188
-2.9204188
-2.9143188
-2.9112588
-2.9173688
-2.9127888
-2.9173688
-2.9097388
-2.9143188
-2.9112588
-2.9112588
-2.9143188
-2.9249988
-2.9127888
-2.9097388
-2.9143188
-2.9112588
-2.9143188
-2.9143188
-2.9173688
-2.9173688
-2.9173688
-2.9097388
-2.9112588
-2.9188888
-2.9127888
-2.9112588
-2.9143188
-2.9143188
-2.9143188
-2.9173688
-2.9173688
-2.9204188
-2.9173688
-2.9173688
-2.9143188
-2.9173688
-2.9051588
-2.9127888
-2.9173688
-2.9143188
-2.9188888
-2.9173688
-2.9112588
-2.9112588
-2.9112588
-2.9112588
-2.9127888
-2.9112588
-2.9127888
-2.9127888
-2.9173688
-2.9188888
-2.9127888
-2.9204188
-2.9127888
-2.9112588
-2.9097388
-2.9112588
-2.9097388
-2.9112588
-2.9082088
-2.9219388
-2.9112588
-2.9112588
-2.9127888
-2.9082088
-2.9082088
-2.9112588
-2.9112588
-2.9112588
-2.9127888
-2.9066888
-2.9082088
-2.9143188
-2.9127888
-2.9082088
-2.9082088
-2.9127888
-2.9097388
-2.9112588
-2.9097388
-2.9143188
-2.9112588
-2.9127888
-2.9082088
-2.9143188
-2.8990588
-2.9127888
-2.9127888
-2.9082088
-2.9143188
-2.9143188
-2.9097388
-2.9082088
-2.9066888
-2.9097388
-2.9097388
-2.9127888
-2.9082088
-2.9082088
-2.9173688
-2.9112588
-2.9082088
-2.9173688
-2.9127888
-2.9112588
-2.9051588
-2.9112588
-2.9127888
-2.9173688
-2.9127888
-2.9234688
-2.9127888
-2.9173688
-2.9204188
-2.9112588
-2.9173688
-2.9173688
-2.9204188
-2.9204188
-2.9219388
-2.9173688
-2.9234688
-2.9219388
-2.9219388
-2.9204188
-2.9219388
-2.9219388
-2.9204188
-2.9249988
-2.9204188
-2.9280488
-2.9219388
-2.9249988
-2.9173688
-2.9219388
-2.9112588
-2.9219388
-2.9249988
-2.9204188
-2.9234688
-2.9219388
-2.9249988
-2.9204188
-2.9188888
-2.9204188
-2.9219388
-2.9234688
-2.9188888
-2.9219388
-2.9265188
-2.9249988
-2.9204188
-2.9234688
-2.9204188
-2.9234688
-2.9234688
-2.9249988
-2.9234688
-2.9280488
-2.9234688
-2.9265188
-2.9234688
-2.9188888
-2.9249988
-2.9173688
-2.9204188
-2.9204188
-2.9204188
-2.9204188
-2.9249988
-2.9188888
-2.9219388
-2.9234688
-2.9219388
-2.9188888
-2.9188888
-2.9219388
-2.9249988
-2.9249988
-2.9219388
-2.9249988
-2.9204188
-2.9234688
-2.9188888
-2.9265188
-2.9188888
-2.9249988
-2.9265188
-2.9188888
-2.9265188
-2.9265188
-2.9280488
-2.9234688
-2.9234688
-2.9204188
-2.9249988
-2.9265188
-2.9234688
-2.9234688
-2.9280488
-2.9295688
-2.9234688
-2.9280488
-2.9265188
-2.9265188
-2.9234688
-2.9249988
-2.9234688
-2.9295688
-2.9249988
-2.9280488
-2.9280488
-2.9249988
-2.9295688
-2.9265188
-2.9280488
-2.9265188
-2.9326288
-2.9310988
-2.9341488
-2.9280488
-2.9265188
-2.9295688
-2.9280488
-2.9249988
-2.9249988
-2.9265188
-2.9280488
-2.9280488
-2.9249988
-2.9310988
-2.9249988
-2.9265188
-2.9204188
-2.9234688
-2.9219388
-2.9234688
-2.9265188
-2.9188888
-2.9265188
-2.9234688
-2.9310988
-2.9204188
-2.9219388
-2.9204188
-2.9234688
-2.9234688
-2.9234688
-2.9249988
-2.9280488
-2.9234688
-2.9188888
-2.9204188
-2.9219388
-2.9219388
-2.9188888
-2.9234688
-2.9204188
-2.9265188
-2.9204188
-2.9234688
-2.9219388
-2.9219388
-2.9204188
-2.9173688
-2.9204188
-2.9127888
-2.9219388
-2.9234688
-2.9234688
-2.9204188
-2.9234688
-2.9249988
-2.9265188
-2.9219388
-2.9249988
-2.9234688
-2.9219388
-2.9234688
-2.9204188
-2.9249988
-2.9249988
-2.9234688
-2.9204188
-2.9249988
-2.9234688
-2.9265188
-2.9249988
-2.9219388
-2.9234688
-2.9265188
-2.9280488
-2.9188888
-2.9188888
-2.9204188
-2.9204188
-2.9234688
-2.9204188
-2.9204188
-2.9265188
-2.9249988
-2.9234688
-2.9204188
-2.9234688
-2.9219388
-2.9204188
-2.9219388
-2.9219388
-2.9249988
-2.9234688
-2.9249988
-2.9249988
-2.9310988
-2.9265188
-2.9249988
-2.9219388
-2.9173688
-2.9249988
-2.9265188
-2.9249988
-2.9234688
-2.9234688
-2.9234688
-2.9249988
-2.9219388
-2.9188888
-2.9204188
-2.9265188
-2.9219388
-2.9173688
-2.9265188
-2.9204188
-2.9204188
-2.9173688
-2.9219388
-2.9204188
-2.9234688
-2.9219388
-2.9173688
-2.9234688
-2.9204188
-2.9219388
-2.9234688
-2.9204188
-2.9204188
-2.9204188
-2.9204188
-2.9188888
-2.9204188
-2.9219388
-2.9219388
-2.9219388
-2.9143188
-2.9204188
-2.9188888
-2.9127888
-2.9219388
-2.9173688
-2.9204188
-2.9082088
-2.9143188
-2.9112588
-2.9143188
-2.9143188
-2.9112588
-2.9143188
-2.9112588
-2.9188888
-2.9188888
-2.9204188
-2.9188888
-2.9173688
-2.9219388
-2.9204188
-2.9204188
-2.9204188
-2.9204188
-2.9265188
-2.9188888
-2.9173688
-2.9219388
-2.9143188
-2.9173688
-2.9127888
-2.9188888
-2.9173688
-2.9219388
-2.9188888
-2.9127888
-2.9204188
-2.9204188
-2.9143188
-2.9143188
-2.9204188
-2.9188888
-2.9219388
-2.9204188
-2.9188888
-2.9173688
-2.9204188
-2.9219388
-2.9234688
-2.9127888
-2.9219388
-2.9188888
-2.9143188
-2.9188888
-2.9173688
-2.9249988
-2.9173688
-2.9204188
-2.9143188
-2.9204188
-2.9234688
-2.9188888
-2.9204188
-2.9295688
-2.9249988
-2.9219388
-2.9295688
-2.9188888
-2.9234688
-2.9204188
-2.9204188
-2.9234688
-2.9173688
-2.9173688
-2.9280488
-2.9188888
-2.9204188
-2.9204188
-2.9173688
-2.9204188
-2.9204188
-2.9234688
-2.9204188
-2.9265188
-2.9173688
-2.9188888
-2.9219388
-2.9188888
-2.9127888
-2.9219388
-2.9265188
-2.9173688
-2.9219388
-2.9173688
-2.9204188
-2.9112588
-2.9173688
-2.9143188
-2.9188888
-2.9082088
-2.9173688
-2.9143188
-2.9143188
-2.9204188
-2.9173688
-2.9204188
-2.9127888
-2.9173688
-2.9173688
-2.9173688
-2.9173688
-2.9127888
-2.9143188
-2.9249988
-2.9188888
-2.9143188
-2.9173688
-2.9127888
-2.9173688
-2.9112588
-2.9173688
-2.9188888
-2.9143188
-2.9143188
-2.9249988
-2.9127888
-2.9143188
-2.9188888
-2.9112588
-2.9143188
-2.9143188
-2.9204188
-2.9188888
-2.9188888
-2.9127888
-2.9112588
-2.9143188
-2.9204188
-2.9143188
-2.9173688
-2.9219388
-2.9173688
-2.9188888
-2.9143188
-2.9173688
-2.9127888
-2.9112588
-2.9127888
-2.9204188
-2.9066888
-2.9127888
-2.9188888
-2.9143188
-2.9173688
-2.9143188
-2.9127888
-2.9097388
-2.9097388
-2.9097388
-2.9173688
-2.9143188
-2.9143188
-2.9173688
-2.9204188
-2.9204188
-2.9143188
-2.9173688
-2.9143188
-2.9188888
-2.9143188
-2.9143188
-2.9112588
-2.9127888
-2.9112588
-2.9249988
-2.9143188
-2.9143188
-2.9188888
-2.9188888
-2.9127888
-2.9127888
-2.9204188
-2.9204188
-2.9188888
-2.9112588
-2.9127888
-2.9173688
-2.9143188
-2.9066888
-2.9112588
-2.9143188
-2.9066888
-2.9112588
-2.9112588
-2.9127888
-2.9112588
-2.9143188
-2.9127888
-2.9112588
-2.8990588
-2.9082088
-2.9082088
-2.9066888
-2.9112588
-2.9082088
-2.9066888
-2.9066888
-2.9097388
-2.9066888
-2.9112588
-2.9082088
-2.9082088
-2.9082088
-2.9127888
-2.9097388
-2.9082088
-2.9112588
-2.9082088
-2.9097388
-2.9051588
-2.9036288
-2.9051588
-2.9082088
-2.9066888
-2.9173688
-2.9066888
-2.9051588
-2.9082088
-2.9066888
-2.9051588
-2.9082088
-2.9082088
-2.9082088
-2.9082088
-2.9082088
-2.9051588
-2.9082088
-2.9066888
-2.9021088
-2.9021088
-2.9051588
-2.8975288
-2.9021088
-2.9036288
-2.9097388
-2.9005788
-2.9051588
-2.9051588
-2.9066888
-2.8975288
-2.9082088
-2.9082088
-2.9051588
-2.9112588
-2.9082088
-2.9066888
-2.9051588
-2.9051588
-2.9066888
-2.9082088
-2.9112588
-2.9112588
-2.9127888
-2.9173688
-2.9112588
-2.9143188
-2.9219388
-2.9173688
-2.9188888
-2.9112588
-2.9143188
-2.9173688
-2.9173688
-2.9112588
-2.9249988
-2.9143188
-2.9143188
-2.9143188
-2.9097388
-2.9127888
-2.9188888
-2.9173688
-2.9188888
-2.9188888
-2.9127888
-2.9173688
-2.9204188
-2.9173688
-2.9112588
-2.9143188
-2.9173688
-2.9112588
-2.9173688
-2.9127888
-2.9173688
-2.9127888
-2.9127888
-2.9173688
-2.9127888
-2.9036288
-2.9143188
-2.9143188
-2.9097388
-2.9219388
-2.9173688
-2.9143188
-2.9127888
-2.9097388
-2.9082088
-2.9173688
-2.9188888
-2.9097388
-2.9143188
-2.9173688
-2.9143188
-2.9127888
-2.9188888
-2.9143188
-2.9143188
-2.9127888
-2.9188888
-2.9112588
-2.9219388
-2.9173688
-2.9249988
-2.9204188
-2.9173688
-2.9204188
-2.9097388
-2.9112588
-2.9173688
-2.9204188
-2.9219388
-2.9204188
-2.9127888
-2.9173688
-2.9219388
-2.9204188
-2.9112588
-2.9143188
-2.9143188
-2.9082088
-2.9143188
-2.9112588
-2.9219388
-2.9173688
-2.9188888
-2.9097388
-2.9127888
-2.9097388
-2.9143188
-2.9188888
-2.9173688
-2.9204188
-2.9188888
-2.9219388
-2.9173688
-2.9127888
-2.9143188
-2.9219388
-2.9204188
-2.9173688
-2.9204188
-2.9204188
-2.9219388
-2.9173688
-2.9188888
-2.9204188
-2.9188888
-2.9143188
-2.9188888
-2.9188888
-2.9204188
-2.9173688
-2.9219388
-2.9173688
-2.9188888
-2.9234688
-2.9188888
-2.9188888
-2.9173688
-2.9173688
-2.9204188
-2.9204188
-2.9112588
-2.9127888
-2.9204188
-2.9143188
-2.9112588
-2.9127888
-2.9143188
-2.9127888
-2.9173688
-2.9188888
-2.9188888
-2.9173688
-2.9188888
-2.9082088
-2.9143188
-2.9112588
-2.9127888
-2.9127888
-2.9112588
-2.9188888
-2.9173688
-2.9219388
-2.9127888
-2.9173688
-2.9127888
-2.9143188
-2.9112588
-2.9112588
-2.9143188
-2.9188888
-2.9188888
-2.9143188
-2.9127888
-2.9127888
-2.9173688
-2.9082088
-2.9143188
-2.9112588
-2.9188888
-2.9112588
-2.9188888
-2.9143188
-2.9127888
-2.9219388
-2.9173688
-2.9173688
-2.9112588
-2.9188888
-2.9219388
-2.9204188
-2.9127888
-2.9173688
-2.9173688
-2.9127888
-2.9127888
-2.9127888
-2.9127888
-2.9173688
-2.9188888
-2.9143188
-2.9204188
-2.9173688
-2.9204188
-2.9127888
-2.9204188
-2.9173688
-2.9204188
-2.9188888
-2.9127888
-2.9188888
-2.9188888
-2.9234688
-2.9127888
-2.9097388
-2.9082088
-2.9112588
-2.9127888
-2.9127888
-2.9173688
-2.9188888
-2.9112588
-2.9127888
-2.9112588
-2.9127888
-2.9127888
-2.9082088
-2.9112588
-2.9112588
-2.9143188
-2.9097388
-2.9112588
-2.9082088
-2.9112588
-2.9143188
-2.9066888
-2.9082088
-2.9036288
-2.9097388
-2.9127888
-2.9127888
-2.9112588
-2.9127888
-2.9112588
-2.9127888
-2.9127888
-2.9097388
-2.9127888
-2.9112588
-2.9097388
-2.9082088
-2.9112588
-2.9082088
-2.9097388
-2.9021088
-2.9097388
-2.9051588
-2.9097388
-2.9097388
-2.9021088
-2.9112588
-2.9097388
-2.9127888
-2.9066888
-2.9051588
-2.9036288
-2.9051588
-2.9051588
-2.9082088
-2.9082088
-2.9051588
-2.9066888
-2.9036288
-2.9051588
-2.9051588
-2.9066888
-2.9036288
-2.9051588
-2.9036288
-2.9082088
-2.9005788
-2.9036288
-2.9021088
-2.9066888
-2.9066888
-2.9021088
-2.9005788
-2.8990588
-2.9051588
-2.9036288
-2.9051588
-2.9021088
-2.9051588
-2.9021088
-2.9051588
-2.9021088
-2.8990588
-2.9021088
-2.9082088
-2.9021088
-2.9021088
-2.9066888
-2.8990588
-2.9036288
-2.8975288
-2.9066888
-2.9036288
-2.9036288
-2.9021088
-2.8959988
-2.9021088
-2.9021088
-2.9036288
-2.8990588
-2.9005788
-2.8975288
-2.9005788
-2.8990588
-2.9005788
-2.8990588
-2.8959988
-2.9005788
-2.8959988
-2.8898988
-2.8990588
-2.8990588
-2.8944788
-2.8975288
-2.8975288
-2.9005788
-2.8944788
-2.8975288
-2.8959988
-2.9005788
-2.9005788
-2.8959988
-2.8990588
-2.9005788
-2.9005788
-2.8975288
-2.9021088
-2.8990588
-2.9021088
-2.8990588
-2.8975288
-2.8990588
-2.8959988
-2.8975288
-2.9082088
-2.9021088
-2.8975288
-2.9036288
-2.9005788
-2.8975288
-2.8929488
-2.9021088
-2.8975288
-2.9005788
-2.8975288
-2.8929488
-2.8990588
-2.8944788
-2.8914288
-2.8914288
-2.8959988
-2.8944788
-2.8990588
-2.8929488
-2.8990588
-2.8975288
-2.8975288
-2.8975288
-2.9005788
-2.8883788
-2.9005788
-2.9021088
-2.8944788
-2.9021088
-2.9005788
-2.9036288
-2.8990588
-2.9005788
-2.8990588
-2.9051588
-2.9066888
-2.9051588
-2.9051588
-2.9188888
-2.9127888
-2.9066888
-2.9112588
-2.9097388
-2.9082088
-2.9082088
-2.9066888
-2.9051588
-2.9051588
-2.9036288
-2.9173688
-2.9066888
-2.9036288
-2.9112588
-2.9082088
-2.9082088
-2.9005788
-2.9112588
-2.9066888
-2.9097388
-2.9021088
-2.9036288
-2.9082088
-2.9036288
-2.8975288
-2.9005788
-2.9036288
-2.8990588
-2.9021088
-2.9021088
-2.9021088
-2.8975288
-2.9036288
-2.8990588
-2.9021088
-2.8914288
-2.8959988
-2.9005788
-2.8959988
-2.9021088
-2.9005788
-2.9005788
-2.8959988
-2.8990588
-2.8975288
-2.8975288
-2.8975288
-2.8990588
-2.8990588
-2.9051588
-2.9021088
-2.8944788
-2.9005788
-2.8944788
-2.8975288
-2.8975288
-2.8990588
-2.9005788
-2.8990588
-2.8929488
-2.9051588
-2.8975288
-2.8914288
-2.8975288
-2.8944788
-2.8929488
-2.8929488
-2.8975288
-2.8944788
-2.8990588
-2.8944788
-2.8959988
-2.8975288
-2.8975288
-2.8898988
-2.8959988
-2.8990588
-2.8944788
-2.8959988
-2.8898988
-2.8975288
-2.8944788
-2.8944788
-2.8944788
-2.8975288
-2.8868488
-2.8929488
-2.8959988
-2.8944788
-2.8959988
-2.8914288
-2.8944788
-2.8898988
-2.8929488
-2.8868488
-2.8929488
-2.8929488
-2.8929488
-2.8914288
-2.8975288
-2.8959988
-2.8898988
-2.8944788
-2.8914288
-2.8898988
-2.8929488
-2.8929488
-2.8898988
-2.8883788
-2.8883788
-2.9021088
-2.8914288
-2.8868488
-2.8929488
-2.8868488
-2.8883788
-2.8898988
-2.8914288
-2.8914288
-2.8914288
-2.8898988
-2.8929488
-2.8944788
-2.8914288
-2.8929488
-2.8898988
-2.8975288
-2.8914288
-2.8944788
-2.8883788
-2.8959988
-2.8914288
-2.8944788
-2.8944788
-2.8959988
-2.8822688
-2.8944788
-2.8929488
-2.8914288
-2.8914288
-2.8898988
-2.8883788
-2.8914288
-2.8883788
-2.8898988
-2.8898988
-2.8929488
-2.8883788
-2.8914288
-2.8959988
-2.8944788
-2.8929488
-2.8944788
-2.8929488
-2.8914288
-2.8898988
-2.8929488
-2.8883788
-2.8959988
-2.8883788
-2.9005788
-2.8914288
-2.8868488
-2.8944788
-2.8853188
-2.8883788
-2.8853188
-2.8898988
-2.8883788
-2.8883788
-2.8883788
-2.8883788
-2.8929488
-2.8898988
-2.8853188
-2.8822688
-2.8868488
-2.8807488
-2.8853188
-2.8853188
-2.8898988
-2.8883788
-2.8868488
-2.8853188
-2.8898988
-2.8761688
-2.8868488
-2.8853188
-2.8853188
-2.8898988
-2.8883788
-2.8868488
-2.8853188
-2.8822688
-2.8868488
-2.8868488
-2.8868488
-2.8822688
-2.8868488
-2.8929488
-2.8914288
-2.8868488
-2.8914288
-2.8868488
-2.8914288
-2.8853188
-2.8898988
-2.8883788
-2.8929488
-2.8868488
-2.8944788
-2.8914288
-2.8898988
-2.8929488
-2.8853188
-2.8914288
-2.8898988
-2.8959988
-2.8944788
-2.8944788
-2.8898988
-2.8914288
-2.8914288
-2.8914288
-2.8868488
-2.8868488
-2.8914288
-2.8853188
-2.8868488
-2.8914288
-2.8914288
-2.8883788
-2.8898988
-2.8883788
-2.8929488
-2.8822688
-2.8929488
-2.8898988
-2.8868488
-2.8959988
-2.8898988
-2.8898988
-2.8929488
-2.8868488
-2.8853188
-2.8914288
-2.8898988
-2.8868488
-2.8807488
-2.8914288
-2.8898988
-2.8868488
-2.8914288
-2.8853188
-2.8898988
-2.8807488
-2.8883788
-2.8898988
-2.8898988
-2.8853188
-2.8990588
-2.8898988
-2.8883788
-2.8944788
-2.8868488
-2.8929488
-2.8914288
-2.8944788
-2.8944788
-2.8929488
-2.8898988
-2.8944788
-2.8944788
-2.8898988
-2.8883788
-2.8898988
-2.8914288
-2.8914288
-2.8944788
-2.8898988
-2.8975288
-2.8898988
-2.8929488
-2.8853188
-2.8914288
-2.8868488
-2.8914288
-2.8929488
-2.8868488
-2.8944788
-2.8929488
-2.8944788
-2.8929488
-2.8883788
-2.8898988
-2.8944788
-2.8914288
-2.8883788
-2.8929488
-2.8944788
-2.8959988
-2.8914288
-2.8959988
-2.8959988
-2.8975288
-2.8944788
-2.8944788
-2.8975288
-2.8975288
-2.8929488
-2.8975288
-2.8929488
-2.8975288
-2.8975288
-2.8929488
-2.8944788
-2.8914288
-2.8959988
-2.8990588
-2.8975288
-2.8944788
-2.8944788
-2.8975288
-2.8959988
-2.8929488
-2.8929488
-2.8959988
-2.8929488
-2.8929488
-2.8914288
-2.8959988
-2.8883788
-2.8898988
-2.8883788
-2.8929488
-2.8883788
-2.8914288
-2.8914288
-2.8929488
-2.8914288
-2.8944788
-2.9005788
-2.8944788
-2.8975288
-2.8914288
-2.9005788
-2.8975288
-2.9005788
-2.9005788
-2.9021088
-2.9021088
-2.9005788
-2.9005788
-2.9005788
-2.9005788
-2.8990588
-2.9036288
-2.9005788
-2.9066888
-2.9005788
-2.9021088
-2.9036288
-2.9005788
-2.9051588
-2.9005788
-2.8975288
-2.8944788
-2.9005788
-2.9021088
-2.9036288
-2.8990588
-2.8975288
-2.8990588
-2.8959988
-2.8944788
-2.8944788
-2.8975288
-2.8990588
-2.8959988
-2.8944788
-2.8990588
-2.8944788
-2.9005788
-2.8944788
-2.9021088
-2.8959988
-2.8959988
-2.8975288
-2.8914288
-2.8975288
-2.8990588
-2.9021088
-2.8944788
-2.8929488
-2.8914288
-2.8929488
-2.8929488
-2.8944788
-2.8944788
-2.8975288
-2.8959988
-2.8929488
-2.8914288
-2.8898988
-2.8914288
-2.8868488
-2.8914288
-2.8929488
-2.8975288
-2.8914288
-2.8929488
-2.8929488
-2.8944788
-2.8959988
-2.8929488
-2.8914288
-2.8868488
-2.8929488
-2.8944788
-2.8975288
-2.8944788
-2.8929488
-2.8975288
-2.8959988
-2.8914288
-2.8898988
-2.8914288
-2.8975288
-2.8944788
-2.8944788
-2.9005788
-2.8944788
-2.8959988
-2.8944788
-2.8944788
-2.8959988
-2.8914288
-2.8944788
-2.8853188
-2.8929488
-2.8929488
-2.8959988
-2.8898988
-2.8883788
-2.8868488
-2.8898988
-2.8898988
-2.8914288
-2.8883788
-2.8898988
-2.8929488
-2.8914288
-2.8883788
-2.8898988
-2.8914288
-2.8853188
-2.8883788
-2.8883788
-2.8929488
-2.8822688
-2.8914288
-2.8898988
-2.8883788
-2.8914288
-2.8898988
-2.8883788
-2.8868488
-2.8944788
-2.8929488
-2.8944788
-2.8898988
-2.8914288
-2.8898988
-2.8898988
-2.8914288
-2.8944788
-2.8914288
-2.8975288
-2.8944788
-2.8914288
-2.8975288
-2.8883788
-2.8914288
-2.8868488
-2.8975288
-2.8853188
-2.8914288
-2.8883788
-2.8883788
-2.8883788
-2.8883788
-2.8914288
-2.8898988
-2.8929488
-2.8898988
-2.8898988
-2.8898988
-2.8929488
-2.8898988
-2.8883788
-2.8883788
-2.8898988
-2.8807488
-2.8822688
-2.8883788
-2.8776888
-2.8807488
-2.8776888
-2.8853188
-2.8776888
-2.8822688
-2.8792188
-2.8776888
-2.8807488
-2.8822688
-2.8853188
-2.8807488
-2.8792188
-2.8761688
-2.8776888
-2.8761688
-2.8807488
-2.8746388
-2.8807488
-2.8776888
-2.8761688
-2.8792188
-2.8853188
-2.8792188
-2.8761688
-2.8822688
-2.8776888
-2.8792188
-2.8715888
-2.8776888
-2.8761688
-2.8807488
-2.8776888
-2.8746388
-2.8853188
-2.8792188
-2.8746388
-2.8761688
-2.8792188
-2.8746388
-2.8776888
-2.8761688
-2.8776888
-2.8700588
-2.8746388
-2.8746388
-2.8746388
-2.8670088
-2.8731188
-2.8746388
-2.8685388
-2.8746388
-2.8715888
-2.8776888
-2.8700588
-2.8715888
-2.8685388
-2.8700588
-2.8746388
-2.8670088
-2.8715888
-2.8792188
-2.8731188
-2.8670088
-2.8731188
-2.8700588
-2.8746388
-2.8700588
-2.8700588
-2.8685388
-2.8670088
-2.8670088
-2.8746388
-2.8685388
-2.8639588
-2.8700588
-2.8639588
-2.8715888
-2.8639588
-2.8731188
-2.8700588
-2.8715888
-2.8685388
-2.8670088
-2.8715888
-2.8685388
-2.8593788
-2.8670088
-2.8685388
-2.8670088
-2.8700588
-2.8639588
-2.8700588
-2.8654888
-2.8685388
-2.8715888
-2.8700588
-2.8593788
-2.8700588
-2.8715888
-2.8654888
-2.8715888
-2.8700588
-2.8715888
-2.8670088
-2.8654888
-2.8639588
-2.8685388
-2.8685388
-2.8654888
-2.8685388
-2.8746388
-2.8685388
-2.8654888
-2.8685388
-2.8685388
-2.8670088
-2.8670088
-2.8715888
-2.8700588
-2.8685388
-2.8670088
-2.8761688
-2.8685388
-2.8685388
-2.8700588
-2.8639588
-2.8685388
-2.8654888
-2.8670088
-2.8670088
-2.8670088
-2.8654888
-2.8654888
-2.8700588
-2.8685388
-2.8639588
-2.8685388
-2.8761688
-2.8685388
-2.8700588
-2.8700588
-2.8731188
-2.8700588
-2.8731188
-2.8700588
-2.8700588
-2.8578588
-2.8685388
-2.8685388
-2.8670088
-2.8700588
-2.8685388
-2.8670088
-2.8670088
-2.8700588
-2.8685388
-2.8700588
-2.8715888
-2.8715888
-2.8715888
-2.8746388
-2.8746388
-2.8670088
-2.8746388
-2.8654888
-2.8715888
-2.8670088
-2.8731188
-2.8700588
-2.8700588
-2.8685388
-2.8792188
-2.8715888
-2.8685388
-2.8731188
-2.8700588
-2.8685388
-2.8715888
-2.8700588
-2.8715888
-2.8761688
-2.8685388
-2.8731188
-2.8731188
-2.8685388
-2.8670088
-2.8685388
-2.8715888
-2.8624388
-2.8700588
-2.8624388
-2.8700588
-2.8654888
-2.8670088
-2.8685388
-2.8654888
-2.8502288
-2.8639588
-2.8654888
-2.8639588
-2.8670088
-2.8654888
-2.8654888
-2.8639588
-2.8609088
-2.8624388
-2.8639588
-2.8593788
-2.8624388
-2.8654888
-2.8685388
-2.8654888
-2.8609088
-2.8670088
-2.8654888
-2.8624388
-2.8639588
-2.8670088
-2.8639588
-2.8639588
-2.8654888
-2.8746388
-2.8654888
-2.8593788
-2.8639588
-2.8624388
-2.8654888
-2.8670088
-2.8670088
-2.8700588
-2.8685388
-2.8670088
-2.8654888
-2.8685388
-2.8715888
-2.8654888
-2.8685388
-2.8670088
-2.8670088
-2.8670088
-2.8654888
-2.8715888
-2.8685388
-2.8700588
-2.8685388
-2.8670088
-2.8548088
-2.8670088
-2.8670088
-2.8624388
-2.8700588
-2.8639588
-2.8639588
-2.8624388
-2.8609088
-2.8639588
-2.8654888
-2.8639588
-2.8593788
-2.8593788
-2.8639588
-2.8639588
-2.8624388
-2.8654888
-2.8624388
-2.8639588
-2.8593788
-2.8624388
-2.8624388
-2.8624388
-2.8593788
-2.8700588
-2.8639588
-2.8563288
-2.8654888
-2.8563288
-2.8609088
-2.8624388
-2.8609088
-2.8639588
-2.8654888
-2.8609088
-2.8654888
-2.8593788
-2.8578588
-2.8563288
-2.8563288
-2.8624388
-2.8578588
-2.8593788
-2.8578588
-2.8639588
-2.8593788
-2.8593788
-2.8563288
-2.8624388
-2.8548088
-2.8593788
-2.8578588
-2.8548088
-2.8624388
-2.8578588
-2.8624388
-2.8578588
-2.8548088
-2.8548088
-2.8578588
-2.8578588
-2.8502288
-2.8563288
-2.8639588
-2.8624388
-2.8593788
-2.8639588
-2.8624388
-2.8639588
-2.8609088
-2.8639588
-2.8609088
-2.8639588
-2.8593788
-2.8700588
-2.8624388
-2.8639588
-2.8654888
-2.8593788
-2.8639588
-2.8624388
-2.8639588
-2.8654888
-2.8670088
-2.8593788
-2.8639588
-2.8700588
-2.8639588
-2.8593788
-2.8593788
-2.8670088
-2.8624388
-2.8639588
-2.8624388
-2.8670088
-2.8593788
-2.8624388
-2.8548088
-2.8593788
-2.8517488
-2.8609088
-2.8609088
-2.8578588
-2.8639588
-2.8609088
-2.8654888
-2.8609088
-2.8563288
-2.8563288
-2.8624388
-2.8593788
-2.8578588
-2.8624388
-2.8624388
-2.8639588
-2.8624388
-2.8624388
-2.8624388
-2.8639588
-2.8624388
-2.8639588
-2.8609088
-2.8715888
-2.8639588
-2.8670088
-2.8639588
-2.8624388
-2.8670088
-2.8624388
-2.8609088
-2.8609088
-2.8624388
-2.8654888
-2.8639588
-2.8578588
-2.8563288
-2.8624388
-2.8609088
-2.8548088
-2.8517488
-2.8563288
-2.8593788
-2.8563288
-2.8578588
-2.8639588
-2.8593788
-2.8609088
-2.8563288
-2.8609088
-2.8517488
-2.8593788
-2.8563288
-2.8517488
-2.8593788
-2.8563288
-2.8624388
-2.8578588
-2.8548088
-2.8548088
-2.8593788
-2.8563288
-2.8563288
-2.8548088
-2.8593788
-2.8593788
-2.8548088
-2.8548088
-2.8563288
-2.8517488
-2.8471788
-2.8548088
-2.8548088
-2.8593788
-2.8502288
-2.8563288
-2.8548088
-2.8563288
-2.8593788
-2.8502288
-2.8563288
-2.8502288
-2.8578588
-2.8624388
-2.8639588
-2.8593788
-2.8593788
-2.8578588
-2.8593788
-2.8593788
-2.8578588
-2.8548088
-2.8578588
-2.8578588
-2.8563288
-2.8593788
-2.8563288
-2.8563288
-2.8502288
-2.8593788
-2.8563288
-2.8563288
-2.8563288
-2.8517488
-2.8563288
-2.8548088
-2.8609088
-2.8563288
-2.8517488
-2.8486988
-2.8578588
-2.8486988
-2.8517488
-2.8548088
-2.8563288
-2.8563288
-2.8548088
-2.8548088
-2.8548088
-2.8563288
-2.8471788
-2.8486988
-2.8517488
-2.8609088
-2.8517488
-2.8578588
-2.8548088
-2.8548088
-2.8563288
-2.8548088
-2.8517488
-2.8425988
-2.8563288
-2.8593788
-2.8609088
-2.8563288
-2.8563288
-2.8578588
-2.8578588
-2.8563288
-2.8502288
-2.8578588
-2.8593788
-2.8548088
-2.8502288
-2.8563288
-2.8517488
-2.8578588
-2.8471788
-2.8548088
-2.8502288
-2.8548088
-2.8517488
-2.8502288
-2.8548088
-2.8578588
-2.8578588
-2.8563288
-2.8517488
-2.8563288
-2.8578588
-2.8563288
-2.8563288
-2.8548088
-2.8593788
-2.8593788
-2.8563288
-2.8563288
-2.8578588
-2.8593788
-2.8563288
-2.8609088
-2.8578588
-2.8639588
-2.8563288
-2.8593788
-2.8548088
-2.8624388
-2.8593788
-2.8578588
-2.8609088
-2.8563288
-2.8609088
-2.8624388
-2.8639588
-2.8609088
-2.8639588
-2.8624388
-2.8624388
-2.8639588
-2.8609088
-2.8624388
-2.8670088
-2.8639588
-2.8609088
-2.8609088
-2.8517488
-2.8563288
-2.8502288
-2.8624388
-2.8609088
-2.8639588
-2.8624388
-2.8624388
-2.8639588
-2.8609088
-2.8609088
-2.8593788
-2.8654888
-2.8639588
-2.8639588
-2.8624388
-2.8639588
-2.8639588
-2.8639588
-2.8654888
-2.8654888
-2.8548088
-2.8624388
-2.8609088
-2.8563288
-2.8639588
-2.8624388
-2.8639588
-2.8593788
-2.8624388
-2.8609088
-2.8593788
-2.8624388
-2.8639588
-2.8609088
-2.8609088
-2.8624388
-2.8578588
-2.8624388
-2.8624388
-2.8609088
-2.8609088
-2.8593788
-2.8578588
-2.8548088
-2.8578588
-2.8654888
-2.8563288
-2.8609088
-2.8624388
-2.8578588
-2.8578588
-2.8517488
-2.8624388
-2.8563288
-2.8609088
-2.8593788
-2.8609088
-2.8624388
-2.8563288
-2.8502288
-2.8548088
-2.8609088
-2.8548088
-2.8624388
-2.8578588
-2.8593788
-2.8609088
-2.8609088
-2.8593788
-2.8578588
-2.8486988
-2.8563288
-2.8624388
-2.8517488
-2.8563288
-2.8548088
-2.8578588
-2.8502288
-2.8517488
-2.8486988
-2.8548088
-2.8578588
-2.8517488
-2.8548088
-2.8609088
-2.8563288
-2.8517488
-2.8578588
-2.8548088
-2.8563288
-2.8517488
-2.8593788
-2.8563288
-2.8517488
-2.8517488
-2.8624388
-2.8548088
-2.8548088
-2.8593788
-2.8548088
-2.8548088
-2.8486988
-2.8548088
-2.8517488
-2.8593788
-2.8548088
-2.8517488
-2.8563288
-2.8517488
-2.8456488
-2.8548088
-2.8548088
-2.8502288
-2.8593788
-2.8563288
-2.8578588
-2.8517488
-2.8563288
-2.8578588
-2.8563288
-2.8456488
-2.8563288
-2.8548088
-2.8517488
-2.8563288
-2.8486988
-2.8563288
-2.8502288
-2.8517488
-2.8548088
-2.8593788
-2.8639588
-2.8563288
-2.8593788
-2.8654888
-2.8593788
-2.8578588
-2.8593788
-2.8563288
-2.8578588
-2.8548088
-2.8563288
-2.8578588
-2.8578588
-2.8548088
-2.8685388
-2.8609088
-2.8578588
-2.8639588
-2.8593788
-2.8593788
-2.8593788
-2.8654888
-2.8639588
-2.8654888
-2.8624388
-2.8593788
-2.8639588
-2.8624388
-2.8578588
-2.8593788
-2.8639588
-2.8639588
-2.8639588
-2.8624388
-2.8624388
-2.8578588
-2.8609088
-2.8593788
-2.8609088
-2.8502288
-2.8609088
-2.8624388
-2.8578588
-2.8639588
-2.8609088
-2.8639588
-2.8578588
-2.8578588
-2.8578588
-2.8578588
-2.8624388
-2.8593788
-2.8639588
-2.8685388
-2.8670088
-2.8609088
-2.8670088
-2.8639588
-2.8609088
-2.8578588
-2.8624388
-2.8624388
-2.8654888
-2.8639588
-2.8761688
-2.8639588
-2.8654888
-2.8685388
-2.8639588
-2.8670088
-2.8624388
-2.8654888
-2.8670088
-2.8670088
-2.8624388
-2.8578588
-2.8654888
-2.8639588
-2.8609088
-2.8609088
-2.8685388
-2.8609088
-2.8639588
-2.8639588
-2.8639588
-2.8654888
-2.8624388
-2.8654888
-2.8639588
-2.8517488
-2.8624388
-2.8639588
-2.8593788
-2.8654888
-2.8609088
-2.8609088
-2.8593788
-2.8609088
-2.8563288
-2.8578588
-2.8593788
-2.8593788
-2.8578588
-2.8624388
-2.8609088
-2.8578588
-2.8624388
-2.8624388
-2.8624388
-2.8609088
-2.8639588
-2.8609088
-2.8593788
-2.8639588
-2.8715888
-2.8609088
-2.8624388
-2.8685388
-2.8624388
-2.8624388
-2.8624388
-2.8654888
-2.8670088
-2.8639588
-2.8593788
-2.8578588
-2.8609088
-2.8578588
-2.8517488
-2.8502288
-2.8578588
-2.8486988
-2.8517488
-2.8517488
-2.8548088
-2.8548088
-2.8593788
-2.8578588
-2.8593788
-2.8441188
-2.8578588
-2.8578588
-2.8563288
-2.8624388
-2.8593788
-2.8593788
-2.8578588
-2.8593788
-2.8593788
-2.8624388
-2.8639588
-2.8593788
-2.8609088
-2.8639588
-2.8609088
-2.8578588
-2.8609088
-2.8593788
-2.8609088
-2.8548088
-2.8609088
-2.8593788
-2.8593788
-2.8563288
-2.8685388
-2.8548088
-2.8578588
-2.8563288
-2.8517488
-2.8563288
-2.8578588
-2.8563288
-2.8593788
-2.8578588
-2.8517488
-2.8548088
-2.8624388
-2.8548088
-2.8502288
-2.8502288
-2.8548088
-2.8456488
-2.8517488
-2.8548088
-2.8578588
-2.8517488
-2.8548088
-2.8502288
-2.8563288
-2.8456488
-2.8548088
-2.8517488
-2.8471788
-2.8578588
-2.8502288
-2.8563288
-2.8502288
-2.8502288
-2.8486988
-2.8548088
-2.8548088
-2.8486988
-2.8486988
-2.8548088
-2.8517488
-2.8486988
-2.8517488
-2.8471788
-2.8486988
-2.8441188
-2.8471788
-2.8425988
-2.8486988
-2.8425988
-2.8517488
-2.8441188
-2.8441188
-2.8548088
-2.8456488
-2.8486988
-2.8471788
-2.8502288
-2.8563288
-2.8548088
-2.8486988
-2.8517488
-2.8578588
-2.8502288
-2.8456488
-2.8486988
-2.8502288
-2.8486988
-2.8486988
-2.8486988
-2.8563288
-2.8502288
-2.8563288
-2.8517488
-2.8593788
-2.8471788
-2.8563288
-2.8578588
-2.8517488
-2.8578588
-2.8548088
-2.8578588
-2.8502288
-2.8486988
-2.8471788
-2.8548088
-2.8517488
-2.8517488
-2.8548088
-2.8609088
-2.8609088
-2.8578588
-2.8593788
-2.8563288
-2.8563288
-2.8517488
-2.8593788
-2.8578588
-2.8624388
-2.8578588
-2.8609088
-2.8563288
-2.8548088
-2.8593788
-2.8548088
-2.8578588
-2.8517488
-2.8578588
-2.8593788
-2.8578588
-2.8517488
-2.8593788
-2.8593788
-2.8563288
-2.8502288
-2.8548088
-2.8548088
-2.8548088
-2.8563288
-2.8563288
-2.8578588
-2.8486988
-2.8517488
-2.8471788
-2.8517488
-2.8456488
-2.8471788
-2.8502288
-2.8425988
-2.8486988
-2.8471788
-2.8502288
-2.8456488
-2.8471788
-2.8441188
-2.8486988
-2.8456488
-2.8441188
-2.8471788
-2.8486988
-2.8502288
-2.8456488
-2.8456488
-2.8471788
-2.8486988
-2.8441188
-2.8486988
-2.8486988
-2.8502288
-2.8471788
-2.8548088
-2.8486988
-2.8502288
-2.8517488
-2.8502288
-2.8471788
-2.8471788
-2.8548088
-2.8502288
-2.8548088
-2.8456488
-2.8471788
-2.8471788
-2.8502288
-2.8456488
-2.8425988
-2.8456488
-2.8456488
-2.8441188
-2.8441188
-2.8456488
-2.8456488
-2.8425988
-2.8364988
-2.8410688
-2.8395488
-2.8380188
-2.8425988
-2.8364988
-2.8456488
-2.8425988
-2.8471788
-2.8425988
-2.8395488
-2.8380188
-2.8425988
-2.8410688
-2.8395488
-2.8425988
-2.8425988
-2.8410688
-2.8395488
-2.8395488
-2.8410688
-2.8410688
-2.8380188
-2.8486988
-2.8410688
-2.8471788
-2.8441188
-2.8456488
-2.8441188
-2.8441188
-2.8486988
-2.8471788
-2.8502288
-2.8441188
-2.8502288
-2.8517488
-2.8548088
-2.8471788
-2.8486988
-2.8517488
-2.8548088
-2.8471788
-2.8517488
-2.8486988
-2.8471788
-2.8502288
-2.8486988
-2.8548088
-2.8502288
-2.8486988
-2.8471788
-2.8517488
-2.8471788
-2.8456488
-2.8486988
-2.8471788
-2.8471788
-2.8471788
-2.8548088
-2.8502288
-2.8410688
-2.8441188
-2.8471788
-2.8471788
-2.8471788
-2.8471788
-2.8502288
-2.8548088
-2.8486988
-2.8471788
-2.8471788
-2.8548088
-2.8502288
-2.8548088
-2.8517488
-2.8563288
-2.8486988
-2.8548088
-2.8486988
-2.8502288
-2.8548088
-2.8502288
-2.8517488
-2.8517488
-2.8578588
-2.8563288
-2.8548088
-2.8502288
-2.8517488
-2.8486988
-2.8578588
-2.8517488
-2.8502288
-2.8548088
-2.8563288
-2.8517488
-2.8548088
-2.8593788
-2.8548088
-2.8593788
-2.8578588
-2.8624388
-2.8609088
-2.8548088
-2.8578588
-2.8502288
-2.8563288
-2.8563288
-2.8548088
-2.8486988
-2.8456488
-2.8486988
-2.8486988
-2.8502288
-2.8548088
-2.8517488
-2.8548088
-2.8548088
-2.8502288
-2.8471788
-2.8502288
-2.8486988
-2.8456488
-2.8486988
-2.8456488
-2.8578588
-2.8456488
-2.8517488
-2.8486988
-2.8502288
-2.8593788
-2.8502288
-2.8456488
-2.8471788
-2.8502288
-2.8471788
-2.8517488
-2.8441188
-2.8517488
-2.8456488
-2.8471788
-2.8486988
-2.8486988
-2.8486988
-2.8578588
-2.8502288
-2.8486988
-2.8578588
-2.8548088
-2.8517488
-2.8456488
-2.8517488
-2.8563288
-2.8563288
-2.8563288
-2.8486988
-2.8563288
-2.8548088
-2.8486988
-2.8548088
-2.8578588
-2.8517488
-2.8563288
-2.8502288
-2.8517488
-2.8548088
-2.8548088
-2.8517488
-2.8517488
-2.8456488
-2.8502288
-2.8517488
-2.8486988
-2.8517488
-2.8548088
-2.8578588
-2.8486988
-2.8502288
-2.8471788
-2.8471788
-2.8502288
-2.8456488
-2.8517488
-2.8563288
-2.8563288
-2.8502288
-2.8502288
-2.8502288
-2.8517488
-2.8502288
-2.8502288
-2.8517488
-2.8471788
-2.8471788
-2.8563288
-2.8517488
-2.8517488
-2.8548088
-2.8517488
-2.8548088
-2.8456488
-2.8593788
-2.8517488
-2.8563288
-2.8548088
-2.8517488
-2.8578588
-2.8471788
-2.8456488
-2.8486988
-2.8578588
-2.8486988
-2.8548088
-2.8502288
-2.8486988
-2.8471788
-2.8486988
-2.8502288
-2.8486988
-2.8410688
-2.8486988
-2.8486988
-2.8471788
-2.8502288
-2.8486988
-2.8502288
-2.8441188
-2.8441188
-2.8486988
-2.8456488
-2.8471788
-2.8456488
-2.8471788
-2.8578588
-2.8502288
-2.8441188
-2.8517488
-2.8486988
-2.8486988
-2.8486988
-2.8548088
-2.8548088
-2.8548088
-2.8471788
-2.8609088
-2.8517488
-2.8517488
-2.8563288
-2.8548088
-2.8502288
-2.8471788
-2.8471788
-2.8471788
-2.8517488
-2.8502288
-2.8486988
-2.8517488
-2.8456488
-2.8425988
-2.8471788
-2.8502288
-2.8456488
-2.8471788
-2.8471788
-2.8502288
-2.8486988
-2.8517488
-2.8502288
-2.8578588
-2.8441188
-2.8517488
-2.8517488
-2.8486988
-2.8517488
-2.8502288
-2.8517488
-2.8502288
-2.8486988
-2.8502288
-2.8517488
-2.8517488
-2.8456488
-2.8471788
-2.8548088
-2.8502288
-2.8441188
-2.8486988
-2.8456488
-2.8502288
-2.8441188
-2.8486988
-2.8456488
-2.8441188
-2.8441188
-2.8578588
-2.8425988
-2.8425988
-2.8456488
-2.8380188
-2.8410688
-2.8410688
-2.8425988
-2.8425988
-2.8456488
-2.8425988
-2.8410688
-2.8456488
-2.8410688
-2.8364988
-2.8395488
-2.8395488
-2.8364988
-2.8395488
-2.8380188
-2.8410688
-2.8395488
-2.8410688
-2.8395488
-2.8395488
-2.8319188
-2.8395488
-2.8395488
-2.8364988
-2.8441188
-2.8380188
-2.8395488
-2.8395488
-2.8410688
-2.8395488
-2.8410688
-2.8380188
-2.8380188
-2.8410688
-2.8456488
-2.8425988
-2.8380188
-2.8441188
-2.8395488
-2.8380188
-2.8364988
-2.8410688
-2.8410688
-2.8395488
-2.8425988
-2.8517488
-2.8425988
-2.8395488
-2.8425988
-2.8349688
-2.8364988
-2.8364988
-2.8380188
-2.8425988
-2.8395488
-2.8364988
-2.8395488
-2.8410688
-2.8395488
-2.8319188
-2.8349688
-2.8410688
-2.8364988
-2.8395488
-2.8395488
-2.8441188
-2.8410688
-2.8410688
-2.8395488
-2.8395488
-2.8288688
-2.8395488
-2.8410688
-2.8395488
-2.8441188
-2.8395488
-2.8410688
-2.8334388
-2.8364988
-2.8349688
-2.8395488
-2.8364988
-2.8364988
-2.8380188
-2.8395488
-2.8395488
-2.8380188
-2.8395488
-2.8410688
-2.8395488
-2.8380188
-2.8471788
-2.8380188
-2.8410688
-2.8410688
-2.8517488
-2.8410688
-2.8395488
-2.8441188
-2.8410688
-2.8441188
-2.8456488
-2.8441188
-2.8456488
-2.8441188
-2.8410688
-2.8425988
-2.8441188
-2.8395488
-2.8395488
-2.8395488
-2.8410688
-2.8380188
-2.8395488
-2.8380188
-2.8410688
-2.8380188
-2.8410688
-2.8380188
-2.8425988
-2.8258088
-2.8364988
-2.8395488
-2.8364988
-2.8410688
-2.8380188
-2.8395488
-2.8364988
-2.8380188
-2.8364988
-2.8425988
-2.8410688
-2.8364988
-2.8410688
-2.8410688
-2.8395488
-2.8380188
-2.8425988
-2.8410688
-2.8364988
-2.8349688
-2.8410688
-2.8380188
-2.8395488
-2.8364988
-2.8486988
-2.8395488
-2.8395488
-2.8395488
-2.8364988
-2.8380188
-2.8380188
-2.8395488
-2.8425988
-2.8425988
-2.8425988
-2.8410688
-2.8441188
-2.8410688
-2.8349688
-2.8395488
-2.8410688
-2.8364988
-2.8364988
-2.8380188
-2.8456488
-2.8395488
-2.8441188
-2.8410688
-2.8425988
-2.8349688
-2.8425988
-2.8441188
-2.8410688
-2.8441188
-2.8441188
-2.8441188
-2.8410688
-2.8380188
-2.8395488
-2.8410688
-2.8410688
-2.8380188
-2.8425988
-2.8441188
-2.8425988
-2.8456488
-2.8441188
-2.8410688
-2.8441188
-2.8334388
-2.8456488
-2.8395488
-2.8380188
-2.8395488
-2.8441188
-2.8380188
-2.8395488
-2.8410688
-2.8349688
-2.8380188
-2.8380188
-2.8410688
-2.8425988
-2.8410688
-2.8380188
-2.8395488
-2.8456488
-2.8395488
-2.8395488
-2.8380188
-2.8395488
-2.8380188
-2.8410688
-2.8410688
-2.8441188
-2.8395488
-2.8395488
-2.8334388
-2.8410688
-2.8364988
-2.8395488
-2.8425988
-2.8410688
-2.8486988
-2.8425988
-2.8456488
-2.8425988
-2.8410688
-2.8380188
-2.8441188
-2.8410688
-2.8349688
-2.8364988
-2.8456488
-2.8456488
-2.8410688
-2.8425988
-2.8425988
-2.8410688
-2.8395488
-2.8441188
-2.8410688
-2.8441188
-2.8410688
-2.8456488
-2.8364988
-2.8349688
-2.8395488
-2.8380188
-2.8410688
-2.8380188
-2.8441188
-2.8456488
-2.8456488
-2.8395488
-2.8395488
-2.8425988
-2.8410688
-2.8410688
-2.8410688
-2.8425988
-2.8425988
-2.8425988
-2.8441188
-2.8486988
-2.8456488
-2.8410688
-2.8395488
-2.8456488
-2.8380188
-2.8410688
-2.8364988
-2.8380188
-2.8456488
-2.8441188
-2.8456488
-2.8380188
-2.8395488
-2.8364988
-2.8410688
-2.8410688
-2.8410688
-2.8425988
-2.8410688
-2.8425988
-2.8395488
-2.8410688
-2.8380188
-2.8441188
-2.8395488
-2.8410688
-2.8425988
-2.8502288
-2.8380188
-2.8441188
-2.8425988
-2.8425988
-2.8425988
-2.8395488
-2.8410688
-2.8364988
-2.8441188
-2.8441188
-2.8425988
-2.8395488
-2.8410688
-2.8425988
-2.8441188
-2.8410688
-2.8395488
-2.8425988
-2.8425988
-2.8425988
-2.8410688
-2.8456488
-2.8395488
-2.8395488
-2.8349688
-2.8380188
-2.8380188
-2.8380188
-2.8410688
-2.8395488
-2.8395488
-2.8380188
-2.8471788
-2.8364988
-2.8364988
-2.8349688
-2.8364988
-2.8364988
-2.8395488
-2.8395488
-2.8395488
-2.8410688
-2.8395488
-2.8364988
-2.8349688
-2.8380188
-2.8349688
-2.8410688
-2.8410688
-2.8456488
-2.8395488
-2.8441188
-2.8441188
-2.8425988
-2.8441188
-2.8395488
-2.8380188
-2.8334388
-2.8441188
-2.8380188
-2.8441188
-2.8410688
-2.8410688
-2.8425988
-2.8425988
-2.8410688
-2.8364988
-2.8410688
-2.8456488
-2.8395488
-2.8395488
-2.8471788
-2.8425988
-2.8395488
-2.8380188
-2.8441188
-2.8410688
-2.8410688
-2.8441188
-2.8410688
-2.8456488
-2.8395488
-2.8456488
-2.8395488
-2.8380188
-2.8380188
-2.8410688
-2.8380188
-2.8425988
-2.8395488
-2.8410688
-2.8395488
-2.8380188
-2.8319188
-2.8334388
-2.8395488
-2.8349688
-2.8410688
-2.8380188
-2.8425988
-2.8349688
-2.8380188
-2.8380188
-2.8395488
-2.8380188
-2.8334388
-2.8349688
-2.8334388
-2.8395488
-2.8349688
-2.8380188
-2.8349688
-2.8380188
-2.8380188
-2.8395488
-2.8364988
-2.8380188
-2.8380188
-2.8425988
-2.8410688
-2.8395488
-2.8410688
-2.8395488
-2.8410688
-2.8380188
-2.8425988
-2.8395488
-2.8395488
-2.8410688
-2.8395488
-2.8425988
-2.8410688
-2.8441188
-2.8380188
-2.8425988
-2.8364988
-2.8410688
-2.8380188
-2.8380188
-2.8395488
-2.8364988
-2.8380188
-2.8364988
-2.8319188
-2.8364988
-2.8380188
-2.8334388
-2.8425988
-2.8364988
-2.8425988
-2.8364988
-2.8410688
-2.8364988
-2.8364988
-2.8410688
-2.8334388
-2.8349688
-2.8395488
-2.8380188
-2.8349688
-2.8380188
-2.8349688
-2.8410688
-2.8364988
-2.8395488
-2.8364988
-2.8364988
-2.8395488
-2.8456488
-2.8380188
-2.8395488
-2.8395488
-2.8364988
-2.8380188
-2.8334388
-2.8410688
-2.8380188
-2.8395488
-2.8349688
-2.8349688
-2.8425988
-2.8395488
-2.8364988
-2.8364988
-2.8410688
-2.8364988
-2.8410688
-2.8380188
-2.8395488
-2.8364988
-2.8364988
-2.8380188
-2.8364988
-2.8303888
-2.8364988
-2.8380188
-2.8364988
-2.8395488
-2.8395488
-2.8410688
-2.8395488
-2.8364988
-2.8364988
-2.8380188
-2.8395488
-2.8380188
-2.8380188
-2.8456488
-2.8395488
-2.8349688
-2.8349688
-2.8349688
-2.8364988
-2.8364988
-2.8395488
-2.8364988
-2.8380188
-2.8349688
-2.8441188
-2.8364988
-2.8380188
-2.8395488
-2.8334388
-2.8349688
-2.8319188
-2.8380188
-2.8349688
-2.8380188
-2.8364988
-2.8319188
-2.8380188
-2.8364988
-2.8303888
-2.8334388
-2.8395488
-2.8319188
-2.8380188
-2.8349688
-2.8410688
-2.8395488
-2.8380188
-2.8380188
-2.8395488
-2.8273388
-2.8364988
-2.8395488
-2.8334388
-2.8425988
-2.8410688
-2.8410688
-2.8395488
-2.8410688
-2.8380188
-2.8425988
-2.8425988
-2.8395488
-2.8425988
-2.8517488
-2.8471788
-2.8425988
-2.8441188
-2.8410688
-2.8425988
-2.8395488
-2.8441188
-2.8395488
-2.8395488
-2.8441188
-2.8502288
-2.8410688
-2.8441188
-2.8441188
-2.8395488
-2.8410688
-2.8380188
-2.8425988
-2.8410688
-2.8410688
-2.8410688
-2.8380188
-2.8395488
-2.8410688
-2.8349688
-2.8380188
-2.8395488
-2.8349688
-2.8395488
-2.8410688
-2.8410688
-2.8364988
-2.8364988
-2.8319188
-2.8364988
-2.8258088
-2.8349688
-2.8395488
-2.8349688
-2.8395488
-2.8395488
-2.8380188
-2.8380188
-2.8334388
-2.8319188
-2.8364988
-2.8380188
-2.8349688
-2.8334388
-2.8349688
-2.8349688
-2.8319188
-2.8349688
-2.8364988
-2.8364988
-2.8334388
-2.8395488
-2.8380188
-2.8395488
-2.8364988
-2.8471788
-2.8410688
-2.8380188
-2.8410688
-2.8334388
-2.8349688
-2.8380188
-2.8380188
-2.8395488
-2.8425988
-2.8380188
-2.8380188
-2.8395488
-2.8380188
-2.8364988
-2.8349688
-2.8395488
-2.8334388
-2.8334388
-2.8334388
-2.8395488
-2.8334388
-2.8349688
-2.8349688
-2.8334388
-2.8242888
-2.8334388
-2.8349688
-2.8349688
-2.8395488
-2.8349688
-2.8380188
-2.8334388
-2.8349688
-2.8334388
-2.8334388
-2.8349688
-2.8288688
-2.8303888
-2.8319188
-2.8319188
-2.8242888
-2.8303888
-2.8273388
-2.8319188
-2.8288688
-2.8349688
-2.8319188
-2.8334388
-2.8334388
-2.8441188
-2.8349688
-2.8303888
-2.8349688
-2.8303888
-2.8303888
-2.8319188
-2.8349688
-2.8349688
-2.8364988
-2.8334388
-2.8349688
-2.8380188
-2.8319188
-2.8303888
-2.8334388
-2.8380188
-2.8319188
-2.8364988
-2.8364988
-2.8380188
-2.8319188
-2.8349688
-2.8334388
-2.8349688
-2.8212388
-2.8349688
-2.8380188
-2.8349688
-2.8395488
-2.8349688
-2.8380188
-2.8364988
-2.8334388
-2.8380188
-2.8395488
-2.8349688
-2.8380188
-2.8410688
-2.8425988
-2.8441188
-2.8410688
-2.8471788
-2.8410688
-2.8425988
-2.8364988
-2.8395488
-2.8410688
-2.8425988
-2.8380188
-2.8502288
-2.8395488
-2.8349688
-2.8425988
-2.8364988
-2.8380188
-2.8364988
-2.8380188
-2.8380188
-2.8380188
-2.8380188
-2.8334388
-2.8425988
-2.8364988
-2.8334388
-2.8319188
-2.8349688
-2.8258088
-2.8334388
-2.8319188
-2.8349688
-2.8303888
-2.8334388
-2.8288688
-2.8349688
-2.8212388
-2.8303888
-2.8319188
-2.8288688
-2.8334388
-2.8319188
-2.8364988
-2.8288688
-2.8273388
-2.8212388
-2.8303888
-2.8319188
-2.8288688
-2.8319188
-2.8380188
-2.8364988
-2.8334388
-2.8349688
-2.8319188
-2.8364988
-2.8334388
-2.8364988
-2.8380188
-2.8410688
-2.8349688
-2.8441188
-2.8319188
-2.8319188
-2.8349688
-2.8303888
-2.8349688
-2.8334388
-2.8364988
-2.8334388
-2.8349688
-2.8319188
-2.8334388
-2.8364988
-2.8334388
-2.8258088
-2.8288688
-2.8334388
-2.8288688
-2.8349688
-2.8334388
-2.8380188
-2.8303888
-2.8303888
-2.8273388
-2.8319188
-2.8258088
-2.8334388
-2.8334388
-2.8273388
-2.8349688
-2.8319188
-2.8349688
-2.8319188
-2.8319188
-2.8303888
-2.8349688
-2.8319188
-2.8334388
-2.8334388
-2.8395488
-2.8364988
-2.8380188
-2.8364988
-2.8380188
-2.8380188
-2.8334388
-2.8380188
-2.8349688
-2.8441188
-2.8364988
-2.8456488
-2.8380188
-2.8349688
-2.8380188
-2.8334388
-2.8349688
-2.8349688
-2.8364988
-2.8380188
-2.8395488
-2.8380188
-2.8380188
-2.8380188
-2.8380188
-2.8349688
-2.8364988
-2.8364988
-2.8395488
-2.8410688
-2.8425988
-2.8410688
-2.8349688
-2.8395488
-2.8303888
-2.8410688
-2.8334388
-2.8364988
-2.8395488
-2.8349688
-2.8395488
-2.8380188
-2.8349688
-2.8303888
-2.8319188
-2.8303888
-2.8349688
-2.8334388
-2.8349688
-2.8349688
-2.8380188
-2.8364988
-2.8349688
-2.8364988
-2.8364988
-2.8380188
-2.8319188
-2.8364988
-2.8319188
-2.8380188
-2.8334388
-2.8364988
-2.8334388
-2.8319188
-2.8349688
-2.8273388
-2.8273388
-2.8258088
-2.8303888
-2.8303888
-2.8319188
-2.8273388
-2.8334388
-2.8273388
-2.8319188
-2.8303888
-2.8273388
-2.8303888
-2.8273388
-2.8303888
-2.8273388
-2.8319188
-2.8242888
-2.8258088
-2.8212388
-2.8303888
-2.8212388
-2.8258088
-2.8288688
-2.8288688
-2.8273388
-2.8303888
-2.8334388
-2.8273388
-2.8258088
-2.8242888
-2.8273388
-2.8273388
-2.8258088
-2.8303888
-2.8288688
-2.8303888
-2.8273388
-2.8288688
-2.8288688
-2.8288688
-2.8288688
-2.8303888
-2.8303888
-2.8303888
-2.8258088
-2.8303888
-2.8303888
-2.8288688
-2.8334388
-2.8319188
-2.8334388
-2.8242888
-2.8288688
-2.8319188
-2.8319188
-2.8288688
-2.8319188
-2.8349688
-2.8349688
-2.8303888
-2.8319188
-2.8303888
-2.8380188
-2.8334388
-2.8319188
-2.8349688
-2.8303888
-2.8349688
-2.8319188
-2.8380188
-2.8334388
-2.8364988
-2.8334388
-2.8319188
-2.8380188
-2.8380188
-2.8395488
-2.8334388
-2.8319188
-2.8273388
-2.8319188
-2.8303888
-2.8288688
-2.8273388
-2.8319188
-2.8319188
-2.8334388
-2.8303888
-2.8303888
-2.8334388
-2.8288688
-2.8334388
-2.8334388
-2.8334388
-2.8273388
-2.8288688
-2.8273388
-2.8273388
-2.8258088
-2.8288688
-2.8258088
-2.8258088
-2.8288688
-2.8288688
-2.8288688
-2.8258088
-2.8319188
-2.8319188
-2.8303888
-2.8303888
-2.8273388
-2.8288688
-2.8334388
-2.8273388
-2.8273388
-2.8349688
-2.8242888
-2.8242888
-2.8242888
-2.8303888
-2.8258088
-2.8273388
-2.8303888
-2.8242888
-2.8303888
-2.8273388
-2.8303888
-2.8197088
-2.8242888
-2.8212388
-2.8242888
-2.8242888
-2.8212388
-2.8212388
-2.8258088
-2.8273388
-2.8273388
-2.8242888
-2.8258088
-2.8288688
-2.8242888
-2.8303888
-2.8288688
-2.8334388
-2.8273388
-2.8303888
-2.8273388
-2.8288688
-2.8303888
-2.8258088
-2.8258088
-2.8212388
-2.8273388
-2.8212388
-2.8242888
-2.8242888
-2.8273388
-2.8242888
-2.8242888
-2.8242888
-2.8212388
-2.8242888
-2.8288688
-2.8242888
-2.8242888
-2.8303888
-2.8242888
-2.8242888
-2.8212388
-2.8273388
-2.8212388
-2.8258088
-2.8273388
-2.8212388
-2.8212388
-2.8242888
-2.8242888
-2.8212388
-2.8273388
-2.8242888
-2.8242888
-2.8212388
-2.8288688
-2.8258088
-2.8242888
-2.8258088
-2.8258088
-2.8181788
-2.8258088
-2.8288688
-2.8212388
-2.8288688
-2.8288688
-2.8334388
-2.8258088
-2.8273388
-2.8273388
-2.8258088
-2.8288688
-2.8273388
-2.8288688
-2.8258088
-2.8303888
-2.8273388
-2.8273388
-2.8242888
-2.8288688
-2.8288688
-2.8288688
-2.8288688
-2.8242888
-2.8288688
-2.8349688
-2.8273388
-2.8273388
-2.8334388
-2.8288688
-2.8288688
-2.8273388
-2.8319188
-2.8288688
-2.8303888
-2.8303888
-2.8288688
-2.8349688
-2.8334388
-2.8273388
-2.8303888
-2.8334388
-2.8319188
-2.8319188
-2.8303888
-2.8349688
-2.8288688
-2.8273388
-2.8288688
-2.8303888
-2.8212388
-2.8258088
-2.8288688
-2.8212388
-2.8273388
-2.8288688
-2.8303888
-2.8242888
-2.8288688
-2.8273388
-2.8319188
-2.8334388
-2.8273388
-2.8303888
-2.8395488
-2.8334388
-2.8288688
-2.8288688
-2.8334388
-2.8319188
-2.8319188
-2.8303888
-2.8273388
-2.8258088
-2.8303888
-2.8364988
-2.8288688
-2.8288688
-2.8349688
-2.8273388
-2.8288688
-2.8273388
-2.8303888
-2.8273388
-2.8288688
-2.8258088
-2.8288688
-2.8319188
-2.8288688
-2.8181788
-2.8273388
-2.8303888
-2.8273388
-2.8288688
-2.8273388
-2.8319188
-2.8303888
-2.8288688
-2.8273388
-2.8288688
-2.8166588
-2.8288688
-2.8273388
-2.8258088
-2.8288688
-2.8273388
-2.8258088
-2.8212388
-2.8273388
-2.8258088
-2.8258088
-2.8258088
-2.8166588
-2.8212388
-2.8303888
-2.8258088
-2.8212388
-2.8242888
-2.8242888
-2.8288688
-2.8258088
-2.8288688
-2.8258088
-2.8273388
-2.8258088
-2.8364988
-2.8273388
-2.8258088
-2.8273388
-2.8273388
-2.8273388
-2.8273388
-2.8303888
-2.8288688
-2.8288688
-2.8288688
-2.8273388
-2.8288688
-2.8288688
-2.8212388
-2.8242888
-2.8273388
-2.8258088
-2.8273388
-2.8273388
-2.8273388
-2.8258088
-2.8273388
-2.8258088
-2.8258088
-2.8136088
-2.8212388
-2.8242888
-2.8197088
-2.8258088
-2.8181788
-2.8242888
-2.8212388
-2.8242888
-2.8212388
-2.8258088
-2.8258088
-2.8197088
-2.8212388
-2.8319188
-2.8273388
-2.8197088
-2.8242888
-2.8258088
-2.8242888
-2.8258088
-2.8273388
-2.8288688
-2.8273388
-2.8273388
-2.8395488
-2.8319188
-2.8273388
-2.8319188
-2.8258088
-2.8303888
-2.8303888
-2.8364988
-2.8288688
-2.8334388
-2.8288688
-2.8288688
-2.8303888
-2.8288688
-2.8258088
-2.8258088
-2.8364988
-2.8303888
-2.8319188
-2.8319188
-2.8349688
-2.8319188
-2.8319188
-2.8273388
-2.8319188
-2.8181788
-2.8319188
-2.8349688
-2.8288688
-2.8349688
-2.8288688
-2.8319188
-2.8242888
-2.8288688
-2.8258088
-2.8303888
-2.8319188
-2.8273388
-2.8273388
-2.8349688
-2.8303888
-2.8212388
-2.8288688
-2.8273388
-2.8258088
-2.8197088
-2.8288688
-2.8212388
-2.8242888
-2.8242888
-2.8395488
-2.8319188
-2.8212388
-2.8288688
-2.8212388
-2.8242888
-2.8242888
-2.8288688
-2.8288688
-2.8273388
-2.8242888
-2.8273388
-2.8334388
-2.8288688
-2.8288688
-2.8319188
-2.8319188
-2.8288688
-2.8334388
-2.8303888
-2.8349688
-2.8273388
-2.8303888
-2.8242888
-2.8288688
-2.8166588
-2.8273388
-2.8303888
-2.8242888
-2.8288688
-2.8303888
-2.8288688
-2.8242888
-2.8242888
-2.8273388
-2.8303888
-2.8258088
-2.8197088
-2.8258088
-2.8258088
-2.8273388
-2.8242888
-2.8258088
-2.8212388
-2.8242888
-2.8197088
-2.8258088
-2.8212388
-2.8197088
-2.8181788
-2.8364988
-2.8258088
-2.8212388
-2.8242888
-2.8197088
-2.8197088
-2.8242888
-2.8242888
-2.8242888
-2.8258088
-2.8197088
-2.8242888
-2.8258088
-2.8242888
-2.8242888
-2.8212388
-2.8273388
-2.8212388
-2.8212388
-2.8197088
-2.8258088
-2.8197088
-2.8212388
-2.8181788
-2.8242888
-2.8105588
-2.8242888
-2.8197088
-2.8212388
-2.8288688
-2.8242888
-2.8258088
-2.8197088
-2.8212388
-2.8197088
-2.8258088
-2.8212388
-2.8181788
-2.8212388
-2.8212388
-2.8242888
-2.8197088
-2.8258088
-2.8242888
-2.8212388
-2.8166588
-2.8242888
-2.8242888
-2.8288688
-2.8212388
-2.8319188
-2.8242888
-2.8212388
-2.8242888
-2.8181788
-2.8242888
-2.8242888
-2.8273388
-2.8303888
-2.8288688
-2.8242888
-2.8212388
-2.8288688
-2.8273388
-2.8197088
-2.8258088
-2.8288688
-2.8273388
-2.8303888
-2.8258088
-2.8303888
-2.8288688
-2.8303888
-2.8258088
-2.8334388
-2.8181788
-2.8319188
-2.8303888
-2.8273388
-2.8364988
-2.8288688
-2.8334388
-2.8288688
-2.8288688
-2.8303888
-2.8334388
-2.8349688
-2.8319188
-2.8319188
-2.8380188
-2.8334388
-2.8288688
-2.8334388
-2.8303888
-2.8349688
-2.8303888
-2.8319188
-2.8319188
-2.8380188
-2.8319188
-2.8364988
-2.8334388
-2.8319188
-2.8349688
-2.8303888
-2.8334388
-2.8319188
-2.8334388
-2.8319188
-2.8319188
-2.8258088
-2.8303888
-2.8319188
-2.8303888
-2.8212388
-2.8242888
-2.8273388
-2.8258088
-2.8258088
-2.8242888
-2.8273388
-2.8242888
-2.8242888
-2.8212388
-2.8242888
-2.8181788
-2.8242888
-2.8258088
-2.8242888
-2.8273388
-2.8273388
-2.8258088
-2.8258088
-2.8212388
-2.8242888
-2.8288688
-2.8288688
-2.8197088
-2.8258088
-2.8288688
-2.8319188
-2.8288688
-2.8319188
-2.8319188
-2.8319188
-2.8288688
-2.8319188
-2.8319188
-2.8364988
-2.8303888
-2.8349688
-2.8319188
-2.8288688
-2.8349688
-2.8303888
-2.8288688
-2.8288688
-2.8303888
-2.8364988
-2.8349688
-2.8349688
-2.8319188
-2.8319188
-2.8319188
-2.8288688
-2.8242888
-2.8288688
-2.8288688
-2.8273388
-2.8242888
-2.8288688
-2.8242888
-2.8258088
-2.8212388
-2.8242888
-2.8273388
-2.8242888
-2.8273388
-2.8258088
-2.8288688
-2.8319188
-2.8334388
-2.8273388
-2.8212388
-2.8197088
-2.8242888
-2.8258088
-2.8258088
-2.8258088
-2.8258088
-2.8319188
-2.8273388
-2.8273388
-2.8273388
-2.8273388
-2.8258088
-2.8273388
-2.8273388
-2.8334388
-2.8258088
-2.8303888
-2.8319188
-2.8288688
-2.8334388
-2.8273388
-2.8273388
-2.8212388
-2.8273388
-2.8303888
-2.8303888
-2.8258088
-2.8273388
-2.8303888
-2.8288688
-2.8258088
-2.8212388
-2.8273388
-2.8273388
-2.8288688
-2.8258088
-2.8303888
-2.8242888
-2.8303888
-2.8242888
-2.8273388
-2.8258088
-2.8242888
-2.8258088
-2.8212388
-2.8273388
-2.8242888
-2.8288688
-2.8258088
-2.8197088
-2.8212388
-2.8212388
-2.8242888
-2.8197088
-2.8181788
-2.8258088
-2.8273388
-2.8273388
-2.8258088
-2.8273388
-2.8303888
-2.8242888
-2.8288688
-2.8303888
-2.8410688
-2.8303888
-2.8334388
-2.8319188
-2.8303888
-2.8334388
-2.8288688
-2.8258088
-2.8273388
-2.8303888
-2.8288688
-2.8303888
-2.8303888
-2.8303888
-2.8319188
-2.8334388
-2.8303888
-2.8288688
-2.8334388
-2.8380188
-2.8364988
-2.8319188
-2.8410688
-2.8334388
-2.8364988
-2.8319188
-2.8380188
-2.8349688
-2.8334388
-2.8349688
-2.8349688
-2.8349688
-2.8334388
-2.8364988
-2.8288688
-2.8303888
-2.8319188
-2.8349688
-2.8334388
-2.8334388
-2.8319188
-2.8334388
-2.8334388
-2.8319188
-2.8273388
-2.8303888
-2.8319188
-2.8273388
-2.8334388
-2.8303888
-2.8349688
-2.8288688
-2.8319188
-2.8334388
-2.8319188
-2.8349688
-2.8334388
-2.8334388
-2.8303888
-2.8364988
-2.8319188
-2.8349688
-2.8334388
-2.8349688
-2.8334388
-2.8364988
-2.8334388
-2.8334388
-2.8334388
-2.8364988
-2.8319188
-2.8288688
-2.8364988
-2.8303888
-2.8334388
-2.8319188
-2.8380188
-2.8349688
-2.8349688
-2.8364988
-2.8334388
-2.8364988
-2.8380188
-2.8380188
-2.8303888
-2.8319188
-2.8334388
-2.8303888
-2.8303888
-2.8319188
-2.8303888
-2.8334388
-2.8319188
-2.8303888
-2.8288688
-2.8319188
-2.8364988
-2.8273388
-2.8334388
-2.8319188
-2.8364988
-2.8288688
-2.8303888
-2.8258088
-2.8288688
-2.8273388
-2.8288688
-2.8288688
-2.8288688
-2.8303888
-2.8288688
-2.8288688
-2.8303888
-2.8303888
-2.8303888
-2.8303888
-2.8273388
-2.8273388
-2.8303888
-2.8334388
-2.8303888
-2.8273388
-2.8334388
-2.8273388
-2.8273388
-2.8242888
-2.8273388
-2.8288688
-2.8303888
-2.8273388
-2.8242888
-2.8273388
-2.8273388
-2.8273388
-2.8273388
-2.8288688
-2.8288688
-2.8303888
-2.8273388
-2.8258088
-2.8242888
-2.8273388
-2.8273388
-2.8258088
-2.8166588
-2.8242888
-2.8242888
-2.8197088
-2.8303888
-2.8303888
-2.8319188
-2.8258088
-2.8288688
-2.8258088
-2.8288688
-2.8319188
-2.8242888
-2.8303888
-2.8334388
-2.8288688
-2.8273388
-2.8273388
-2.8288688
-2.8288688
-2.8303888
-2.8303888
-2.8273388
-2.8303888
-2.8303888
-2.8380188
-2.8334388
-2.8319188
-2.8334388
-2.8273388
-2.8288688
-2.8273388
-2.8303888
-2.8288688
-2.8319188
-2.8273388
-2.8242888
-2.8319188
-2.8288688
-2.8181788
-2.8242888
-2.8273388
-2.8197088
-2.8212388
-2.8212388
-2.8258088
-2.8242888
-2.8242888
-2.8273388
-2.8258088
-2.8151288
-2.8242888
-2.8273388
-2.8197088
-2.8273388
-2.8242888
-2.8273388
-2.8258088
-2.8242888
-2.8273388
-2.8273388
-2.8288688
-2.8242888
-2.8303888
-2.8364988
-2.8319188
-2.8288688
-2.8303888
-2.8319188
-2.8303888
-2.8349688
-2.8364988
-2.8319188
-2.8303888
-2.8319188
-2.8441188
-2.8364988
-2.8334388
-2.8380188
-2.8319188
-2.8380188
-2.8288688
-2.8380188
-2.8334388
-2.8380188
-2.8349688
-2.8334388
-2.8364988
-2.8364988
-2.8303888
-2.8395488
-2.8410688
-2.8380188
-2.8410688
-2.8380188
-2.8395488
-2.8395488
-2.8380188
-2.8395488
-2.8395488
-2.8288688
-2.8395488
-2.8441188
-2.8380188
-2.8410688
-2.8395488
-2.8410688
-2.8380188
-2.8395488
-2.8364988
-2.8380188
-2.8410688
-2.8410688
-2.8410688
-2.8456488
-2.8456488
-2.8410688
-2.8441188
-2.8425988
-2.8441188
-2.8410688
-2.8441188
-2.8410688
-2.8425988
-2.8410688
-2.8502288
-2.8425988
-2.8380188
-2.8425988
-2.8380188
-2.8410688
-2.8395488
-2.8395488
-2.8425988
-2.8425988
-2.8410688
-2.8410688
-2.8456488
-2.8441188
-2.8364988
-2.8364988
-2.8441188
-2.8395488
-2.8395488
-2.8395488
-2.8425988
-2.8364988
-2.8410688
-2.8425988
-2.8410688
-2.8303888
-2.8395488
-2.8441188
-2.8410688
-2.8425988
-2.8425988
-2.8410688
-2.8380188
-2.8425988
-2.8410688
-2.8441188
-2.8441188
-2.8425988
-2.8441188
-2.8471788
-2.8471788
-2.8410688
-2.8456488
-2.8441188
-2.8425988
-2.8441188
-2.8441188
-2.8456488
-2.8425988
-2.8425988
-2.8502288
-2.8410688
-2.8395488
-2.8395488
-2.8380188
-2.8380188
-2.8380188
-2.8380188
-2.8380188
-2.8380188
-2.8380188
-2.8380188
-2.8410688
-2.8364988
-2.8319188
-2.8364988
-2.8425988
-2.8410688
-2.8410688
-2.8410688
-2.8441188
-2.8364988
-2.8425988
-2.8410688
-2.8395488
-2.8288688
-2.8410688
-2.8395488
-2.8395488
-2.8410688
-2.8395488
-2.8364988
-2.8364988
-2.8349688
-2.8303888
-2.8349688
-2.8334388
-2.8303888
-2.8349688
-2.8380188
-2.8364988
-2.8334388
-2.8395488
-2.8349688
-2.8349688
-2.8303888
-2.8303888
-2.8303888
-2.8303888
-2.8258088
-2.8395488
-2.8303888
-2.8273388
-2.8349688
-2.8273388
-2.8273388
-2.8364988
-2.8319188
-2.8349688
-2.8349688
-2.8364988
-2.8334388
-2.8349688
-2.8319188
-2.8303888
-2.8334388
-2.8349688
-2.8334388
-2.8349688
-2.8349688
-2.8349688
-2.8349688
-2.8334388
-2.8303888
-2.8334388
-2.8212388
-2.8319188
-2.8349688
-2.8303888
-2.8380188
-2.8349688
-2.8334388
-2.8319188
-2.8303888
-2.8303888
-2.8349688
-2.8334388
-2.8303888
-2.8319188
-2.8349688
-2.8334388
-2.8334388
-2.8364988
-2.8349688
-2.8395488
-2.8334388
-2.8349688
-2.8364988
-2.8364988
-2.8319188
-2.8425988
-2.8334388
-2.8349688
-2.8349688
-2.8319188
-2.8319188
-2.8364988
-2.8349688
-2.8380188
-2.8380188
-2.8349688
-2.8364988
-2.8410688
-2.8364988
-2.8303888
-2.8303888
-2.8334388
-2.8319188
-2.8288688
-2.8288688
-2.8349688
-2.8303888
-2.8319188
-2.8319188
-2.8364988
-2.8258088
-2.8364988
-2.8364988
-2.8334388
-2.8380188
-2.8334388
-2.8334388
-2.8319188
-2.8334388
-2.8319188
-2.8364988
-2.8319188
-2.8288688
-2.8319188
-2.8349688
-2.8364988
-2.8349688
-2.8380188
-2.8349688
-2.8364988
-2.8334388
-2.8364988
-2.8334388
-2.8380188
-2.8349688
-2.8425988
-2.8319188
-2.8364988
-2.8364988
-2.8288688
-2.8303888
-2.8288688
-2.8334388
-2.8349688
-2.8364988
-2.8380188
-2.8349688
-2.8395488
-2.8364988
-2.8319188
-2.8334388
-2.8319188
-2.8319188
-2.8334388
-2.8319188
-2.8364988
-2.8319188
-2.8334388
-2.8258088
-2.8334388
-2.8258088
-2.8288688
-2.8334388
-2.8288688
-2.8319188
-2.8303888
-2.8303888
-2.8273388
-2.8288688
-2.8288688
-2.8303888
-2.8288688
-2.8273388
-2.8288688
-2.8303888
-2.8319188
-2.8303888
-2.8349688
-2.8319188
-2.8334388
-2.8273388
-2.8334388
-2.8303888
-2.8380188
-2.8288688
-2.8380188
-2.8334388
-2.8334388
-2.8364988
-2.8319188
-2.8349688
-2.8303888
-2.8364988
-2.8395488
-2.8364988
-2.8364988
-2.8334388
-2.8380188
-2.8334388
-2.8273388
-2.8273388
-2.8273388
-2.8258088
-2.8288688
-2.8273388
-2.8349688
-2.8288688
-2.8319188
-2.8212388
-2.8334388
-2.8258088
-2.8319188
-2.8334388
-2.8303888
-2.8303888
-2.8303888
-2.8334388
-2.8288688
-2.8288688
-2.8242888
-2.8288688
-2.8288688
-2.8273388
-2.8288688
-2.8303888
-2.8319188
-2.8288688
-2.8288688
-2.8303888
-2.8303888
-2.8258088
-2.8334388
-2.8303888
-2.8334388
-2.8273388
-2.8334388
-2.8319188
-2.8303888
-2.8334388
-2.8303888
-2.8303888
-2.8273388
-2.8319188
-2.8319188
-2.8334388
-2.8303888
-2.8319188
-2.8288688
-2.8319188
-2.8303888
-2.8319188
-2.8319188
-2.8349688
-2.8334388
-2.8319188
-2.8364988
-2.8303888
-2.8349688
-2.8319188
-2.8380188
-2.8303888
-2.8334388
-2.8334388
-2.8288688
-2.8334388
-2.8364988
-2.8380188
-2.8319188
-2.8303888
-2.8258088
-2.8334388
-2.8288688
-2.8288688
-2.8319188
-2.8334388
-2.8319188
-2.8303888
-2.8288688
-2.8319188
-2.8334388
-2.8334388
-2.8380188
-2.8349688
-2.8380188
-2.8319188
-2.8364988
-2.8349688
-2.8303888
-2.8349688
-2.8303888
-2.8349688
-2.8288688
-2.8349688
-2.8364988
-2.8364988
-2.8349688
-2.8380188
-2.8410688
-2.8395488
-2.8364988
-2.8364988
-2.8395488
-2.8410688
-2.8395488
-2.8380188
-2.8410688
-2.8319188
-2.8380188
-2.8334388
-2.8364988
-2.8319188
-2.8334388
-2.8364988
-2.8349688
-2.8380188
-2.8349688
-2.8410688
-2.8334388
-2.8349688
-2.8319188
-2.8349688
-2.8334388
-2.8349688
-2.8349688
-2.8380188
-2.8410688
-2.8395488
-2.8349688
-2.8380188
-2.8349688
-2.8319188
-2.8395488
-2.8380188
-2.8410688
-2.8319188
-2.8349688
-2.8349688
-2.8349688
-2.8349688
-2.8319188
-2.8319188
-2.8258088
-2.8334388
-2.8334388
-2.8349688
-2.8364988
-2.8380188
-2.8380188
-2.8349688
-2.8334388
-2.8380188
-2.8349688
-2.8349688
-2.8319188
-2.8288688
-2.8364988
-2.8258088
-2.8288688
-2.8212388
-2.8319188
-2.8288688
-2.8319188
-2.8349688
-2.8288688
-2.8288688
-2.8303888
-2.8303888
-2.8258088
-2.8258088
-2.8242888
-2.8273388
-2.8288688
-2.8303888
-2.8258088
-2.8334388
-2.8319188
-2.8319188
-2.8303888
-2.8319188
-2.8303888
-2.8288688
-2.8349688
-2.8303888
-2.8380188
-2.8319188
-2.8334388
-2.8334388
-2.8334388
-2.8380188
-2.8334388
-2.8319188
-2.8288688
-2.8319188
-2.8319188
-2.8349688
-2.8334388
-2.8319188
-2.8303888
-2.8349688
-2.8303888
-2.8288688
-2.8303888
-2.8349688
-2.8288688
-2.8334388
-2.8364988
-2.8303888
-2.8303888
-2.8288688
-2.8334388
-2.8288688
-2.8334388
-2.8319188
-2.8258088
-2.8303888
-2.8319188
-2.8334388
-2.8288688
-2.8319188
-2.8303888
-2.8303888
-2.8303888
-2.8303888
-2.8273388
-2.8303888
-2.8288688
-2.8288688
-2.8242888
-2.8273388
-2.8288688
-2.8212388
-2.8288688
-2.8258088
-2.8319188
-2.8212388
-2.8273388
-2.8258088
-2.8258088
-2.8288688
-2.8258088
-2.8273388
-2.8288688
-2.8319188
-2.8303888
-2.8334388
-2.8273388
-2.8303888
-2.8303888
-2.8303888
-2.8303888
-2.8303888
-2.8303888
-2.8364988
-2.8319188
-2.8319188
-2.8319188
-2.8334388
-2.8334388
-2.8258088
-2.8364988
-2.8273388
-2.8319188
-2.8364988
-2.8349688
-2.8364988
-2.8364988
-2.8364988
-2.8349688
-2.8395488
-2.8349688
-2.8334388
-2.8380188
-2.8364988
-2.8349688
-2.8303888
-2.8349688
-2.8364988
-2.8303888
-2.8364988
-2.8395488
-2.8349688
-2.8410688
-2.8380188
-2.8441188
-2.8364988
-2.8395488
-2.8349688
-2.8395488
-2.8380188
-2.8380188
-2.8395488
-2.8425988
-2.8410688
-2.8364988
-2.8425988
-2.8380188
-2.8425988
-2.8395488
-2.8425988
-2.8425988
-2.8380188
-2.8364988
-2.8425988
-2.8364988
-2.8395488
-2.8410688
-2.8364988
-2.8380188
-2.8364988
-2.8395488
-2.8349688
-2.8395488
-2.8395488
-2.8349688
-2.8380188
-2.8395488
-2.8319188
-2.8410688
-2.8410688
-2.8380188
-2.8410688
-2.8425988
-2.8425988
-2.8410688
-2.8425988
-2.8395488
-2.8410688
-2.8303888
-2.8441188
-2.8425988
-2.8364988
-2.8425988
-2.8395488
-2.8425988
-2.8380188
-2.8380188
-2.8319188
-2.8380188
-2.8395488
-2.8319188
-2.8334388
-2.8441188
-2.8395488
-2.8319188
-2.8410688
-2.8380188
-2.8395488
-2.8380188
-2.8410688
-2.8395488
-2.8425988
-2.8395488
-2.8471788
-2.8380188
-2.8380188
-2.8395488
-2.8349688
-2.8380188
-2.8364988
-2.8425988
-2.8425988
-2.8441188
-2.8441188
-2.8410688
-2.8441188
-2.8425988
-2.8380188
-2.8395488
-2.8425988
-2.8425988
-2.8425988
-2.8410688
-2.8410688
-2.8410688
-2.8441188
-2.8410688
-2.8456488
-2.8334388
-2.8425988
-2.8425988
-2.8380188
-2.8441188
-2.8441188
-2.8471788
-2.8380188
-2.8471788
-2.8425988
-2.8441188
-2.8441188
-2.8410688
-2.8486988
-2.8517488
-2.8441188
-2.8425988
-2.8471788
-2.8441188
-2.8410688
-2.8425988
-2.8471788
-2.8441188
-2.8456488
-2.8425988
-2.8517488
-2.8441188
-2.8410688
-2.8441188
-2.8364988
-2.8395488
-2.8441188
-2.8456488
-2.8441188
-2.8456488
-2.8395488
-2.8395488
-2.8410688
-2.8380188
-2.8334388
-2.8364988
-2.8395488
-2.8334388
-2.8364988
-2.8380188
-2.8380188
-2.8349688
-2.8364988
-2.8349688
-2.8364988
-2.8242888
-2.8364988
-2.8364988
-2.8334388
-2.8380188
-2.8349688
-2.8349688
-2.8319188
-2.8364988
-2.8334388
-2.8364988
-2.8319188
-2.8319188
-2.8349688
-2.8441188
-2.8334388
-2.8349688
-2.8364988
-2.8364988
-2.8349688
-2.8334388
-2.8380188
-2.8364988
-2.8364988
-2.8364988
-2.8471788
-2.8410688
-2.8380188
-2.8380188
-2.8349688
-2.8364988
-2.8364988
-2.8380188
-2.8395488
-2.8395488
-2.8380188
-2.8380188
-2.8395488
-2.8410688
-2.8380188
-2.8380188
-2.8425988
-2.8334388
-2.8349688
-2.8334388
-2.8395488
-2.8334388
-2.8380188
-2.8334388
-2.8395488
-2.8273388
-2.8410688
-2.8395488
-2.8380188
-2.8395488
-2.8364988
-2.8395488
-2.8349688
-2.8349688
-2.8349688
-2.8380188
-2.8349688
-2.8319188
-2.8349688
-2.8395488
-2.8364988
-2.8364988
-2.8395488
-2.8349688
-2.8364988
-2.8364988
-2.8410688
-2.8364988
-2.8380188
-2.8380188
-2.8471788
-2.8395488
-2.8364988
-2.8425988
-2.8349688
-2.8349688
-2.8380188
-2.8441188
-2.8395488
-2.8410688
-2.8380188
-2.8410688
-2.8456488
-2.8395488
-2.8364988
-2.8380188
-2.8395488
-2.8380188
-2.8349688
-2.8364988
-2.8380188
-2.8334388
-2.8349688
-2.8334388
-2.8395488
-2.8242888
-2.8395488
-2.8364988
-2.8349688
-2.8410688
-2.8380188
-2.8334388
-2.8349688
-2.8349688
-2.8319188
-2.8349688
-2.8319188
-2.8303888
-2.8349688
-2.8410688
-2.8334388
-2.8349688
-2.8364988
-2.8380188
-2.8364988
-2.8334388
-2.8395488
-2.8334388
-2.8380188
-2.8380188
-2.8486988
-2.8395488
-2.8319188
-2.8380188
-2.8334388
-2.8364988
-2.8380188
-2.8380188
-2.8395488
-2.8380188
-2.8380188
-2.8395488
-2.8441188
-2.8410688
-2.8380188
-2.8364988
-2.8380188
-2.8319188
-2.8364988
-2.8334388
-2.8395488
-2.8349688
-2.8364988
-2.8334388
-2.8380188
-2.8273388
-2.8349688
-2.8364988
-2.8334388
-2.8395488
-2.8349688
-2.8364988
-2.8334388
-2.8319188
-2.8319188
-2.8364988
-2.8349688
-2.8303888
-2.8349688
-2.8380188
-2.8395488
-2.8410688
-2.8425988
-2.8380188
-2.8410688
-2.8380188
-2.8395488
-2.8364988
-2.8410688
-2.8349688
-2.8502288
-2.8395488
-2.8395488
-2.8425988
-2.8303888
-2.8380188
-2.8380188
-2.8410688
-2.8410688
-2.8380188
-2.8380188
-2.8380188
-2.8441188
-2.8410688
-2.8380188
-2.8410688
-2.8395488
-2.8395488
-2.8380188
-2.8380188
-2.8441188
-2.8364988
-2.8410688
-2.8364988
-2.8395488
-2.8273388
-2.8364988
-2.8380188
-2.8334388
-2.8425988
-2.8410688
-2.8425988
-2.8410688
-2.8380188
-2.8364988
-2.8425988
-2.8410688
-2.8364988
-2.8395488
-2.8441188
-2.8425988
-2.8425988
-2.8456488
-2.8395488
-2.8441188
-2.8364988
-2.8441188
-2.8395488
-2.8471788
-2.8410688
-2.8486988
-2.8456488
-2.8425988
-2.8441188
-2.8395488
-2.8425988
-2.8410688
-2.8425988
-2.8441188
-2.8410688
-2.8410688
-2.8380188
-2.8441188
-2.8395488
-2.8395488
-2.8395488
-2.8410688
-2.8395488
-2.8425988
-2.8410688
-2.8425988
-2.8380188
-2.8410688
-2.8349688
-2.8425988
-2.8364988
-2.8441188
-2.8456488
-2.8425988
-2.8425988
-2.8425988
-2.8486988
-2.8441188
-2.8410688
-2.8425988
-2.8441188
-2.8425988
-2.8425988
-2.8425988
-2.8471788
-2.8441188
-2.8425988
-2.8456488
-2.8410688
-2.8441188
-2.8395488
-2.8456488
-2.8456488
-2.8456488
-2.8395488
-2.8441188
-2.8441188
-2.8410688
-2.8471788
-2.8410688
-2.8395488
-2.8395488
-2.8380188
-2.8441188
-2.8425988
-2.8395488
-2.8425988
-2.8410688
-2.8380188
-2.8380188
-2.8349688
-2.8410688
-2.8364988
-2.8364988
-2.8334388
-2.8395488
-2.8349688
-2.8349688
-2.8319188
-2.8380188
-2.8349688
-2.8349688
-2.8364988
-2.8319188
-2.8380188
-2.8380188
-2.8425988
-2.8349688
-2.8349688
-2.8334388
-2.8395488
-2.8364988
-2.8334388
-2.8380188
-2.8380188
-2.8380188
-2.8349688
-2.8364988
-2.8380188
-2.8380188
-2.8349688
-2.8364988
-2.8380188
-2.8456488
-2.8410688
-2.8395488
-2.8395488
-2.8395488
-2.8425988
-2.8395488
-2.8364988
-2.8334388
-2.8410688
-2.8410688
-2.8456488
-2.8410688
-2.8410688
-2.8456488
-2.8441188
-2.8425988
-2.8425988
-2.8441188
-2.8486988
-2.8456488
-2.8425988
-2.8441188
-2.8410688
-2.8441188
-2.8380188
-2.8425988
-2.8395488
-2.8410688
-2.8410688
-2.8364988
-2.8410688
-2.8410688
-2.8471788
-2.8410688
-2.8380188
-2.8395488
-2.8395488
-2.8410688
-2.8410688
-2.8395488
-2.8425988
-2.8456488
-2.8395488
-2.8425988
-2.8395488
-2.8410688
-2.8395488
-2.8395488
-2.8395488
-2.8456488
-2.8364988
-2.8425988
-2.8410688
-2.8410688
-2.8425988
-2.8380188
-2.8349688
-2.8349688
-2.8364988
-2.8395488
-2.8395488
-2.8380188
-2.8395488
-2.8380188
-2.8380188
-2.8364988
-2.8410688
-2.8395488
-2.8441188
-2.8364988
-2.8364988
-2.8380188
-2.8380188
-2.8425988
-2.8349688
-2.8395488
-2.8380188
-2.8410688
-2.8395488
-2.8395488
-2.8425988
-2.8410688
-2.8456488
-2.8441188
-2.8410688
-2.8364988
-2.8425988
-2.8410688
-2.8395488
-2.8364988
-2.8410688
-2.8395488
-2.8364988
-2.8334388
-2.8380188
-2.8395488
-2.8364988
-2.8425988
-2.8425988
-2.8410688
-2.8364988
-2.8395488
-2.8410688
-2.8364988
-2.8410688
-2.8380188
-2.8380188
-2.8380188
-2.8425988
-2.8441188
-2.8425988
-2.8425988
-2.8441188
-2.8425988
-2.8410688
-2.8441188
-2.8425988
-2.8425988
-2.8486988
-2.8486988
-2.8410688
-2.8471788
-2.8441188
-2.8425988
-2.8410688
-2.8502288
-2.8441188
-2.8471788
-2.8441188
-2.8441188
-2.8456488
-2.8441188
-2.8425988
-2.8410688
-2.8425988
-2.8425988
-2.8410688
-2.8395488
-2.8425988
-2.8410688
-2.8395488
-2.8425988
-2.8425988
-2.8380188
-2.8441188
-2.8425988
-2.8395488
-2.8441188
-2.8410688
-2.8456488
-2.8395488
-2.8410688
-2.8395488
-2.8425988
-2.8456488
-2.8441188
-2.8410688
-2.8380188
-2.8441188
-2.8395488
-2.8456488
-2.8441188
-2.8456488
-2.8456488
-2.8486988
-2.8456488
-2.8441188
-2.8471788
-2.8517488
-2.8502288
-2.8441188
-2.8471788
-2.8425988
-2.8410688
-2.8395488
-2.8471788
-2.8425988
-2.8441188
-2.8456488
-2.8410688
-2.8410688
-2.8441188
-2.8395488
-2.8410688
-2.8456488
-2.8410688
-2.8441188
-2.8425988
-2.8441188
-2.8425988
-2.8425988
-2.8441188
-2.8441188
-2.8349688
-2.8425988
-2.8425988
-2.8410688
-2.8471788
-2.8441188
-2.8471788
-2.8395488
-2.8441188
-2.8410688
-2.8425988
-2.8441188
-2.8425988
-2.8456488
-2.8471788
-2.8425988
-2.8410688
-2.8471788
-2.8441188
-2.8441188
-2.8441188
-2.8456488
-2.8471788
-2.8441188
-2.8410688
-2.8517488
-2.8456488
-2.8410688
-2.8471788
-2.8395488
-2.8395488
-2.8395488
-2.8471788
-2.8441188
-2.8471788
-2.8425988
-2.8410688
-2.8410688
-2.8395488
-2.8349688
-2.8380188
-2.8425988
-2.8380188
-2.8395488
-2.8364988
-2.8395488
-2.8380188
-2.8380188
-2.8410688
-2.8425988
-2.8319188
-2.8395488
-2.8410688
-2.8364988
-2.8425988
-2.8380188
-2.8410688
-2.8364988
-2.8380188
-2.8334388
-2.8380188
-2.8395488
-2.8349688
-2.8395488
-2.8486988
-2.8395488
-2.8395488
-2.8425988
-2.8364988
-2.8395488
-2.8364988
-2.8380188
-2.8364988
-2.8410688
-2.8380188
-2.8456488
-2.8364988
-2.8364988
-2.8380188
-2.8349688
-2.8349688
-2.8364988
-2.8425988
-2.8380188
-2.8380188
-3.4080363
-3.4027772
-3.3955401
-3.4213296
-3.3988034
-3.4130962
-3.4166880
-3.4068530
-3.4263849
-3.4167736
-3.4076571
-3.4091244
-3.4139376
-3.4108726
-3.4177136
-3.4062506
-3.4023447
-3.4142701
-3.4042200
-3.4075528
-3.4227681
-3.4149716
-3.4084224
-3.4191973
-3.4117117
-3.4083237
-3.4104679
-3.4055300
-3.4101361
-3.4162467
-3.3995895
-3.4042724
-3.4146502
-3.4060203
-3.4087941
-3.4076239
-3.4145354
-3.4076624
-3.4079390
-3.4206836
-3.4218488
-3.4147434
-3.4128827
-3.4169158
-3.4095898
-3.4072701
-3.4031244
-3.4134389
-3.4164069
-3.4103205
-3.4146894
-3.4053077
-3.4111060
-3.4061697
-3.3935386
-3.4065897
-3.4168991
-3.4157490
-3.4044520
-3.4154390
-3.4163757
-3.4156973
-3.4080503
-3.3974066
-3.4154289
-3.3923443
-3.3997788
-3.4141930
-3.4003778
-3.4121877
-3.4114206
-3.4031760
-3.4058486
-3.4100814
-3.3992776
-3.4046713
-3.4076866
-3.3952592
-3.4123920
-3.4150538
-3.4029499
-3.4137897
-3.4128460
-3.4159528
-3.4193455
-3.4041031
-3.4107704
-3.4208391
-3.4065860
-3.4169852
-3.4290702
-3.4076652
-3.4082702
-3.4114311
-3.4059172
-3.4066843
-3.4102031
-3.4102557
-3.4068911
-3.4133706
-3.4007683
-3.3934548
-3.4163047
-3.4187923
-3.4123374
-3.4169991
-3.4121138
-3.4156884
-3.4225204
-3.4189853
-3.4049938
-3.4118583
-3.4209894
-3.4160980
-3.4033979
-3.3910041
-3.4133266
-3.4080789
-3.4098911
-3.4177335
-3.4096243
-3.4042650
-3.3918534
-3.4086485
-3.4071542
-3.4089405
-3.4191948
-3.4138683
-3.4151403
-3.4149466
-3.4131039
-3.4064132
-3.4167465
-3.4202202
-3.4091945
-3.4084251
-3.4029224
-3.4106911
-3.4115523
-3.4140862
-3.4219843
-3.4103869
-3.4198817
-3.4178564
-3.4067526
-3.4085079
-3.4143215
-3.4123374
-3.4107774
-3.4151079
-3.4028030
-3.4013150
-3.4111427
-3.4089749
-3.4015329
-3.4089554
-3.4076228
-3.4097166
-3.4116608
-3.4106882
-3.4060595
-3.4022832
-3.4059960
-3.4069418
-3.4146470
-3.3998793
-3.4044112
-3.4086319
-3.4152672
-3.4349869
-3.4227135
-3.4177116
-3.4207296
-3.4110303
-3.4148232
-3.4138179
-3.3969864
-3.4042347
-3.4146086
-3.4148212
-3.3991532
-3.4013319
-3.4137370
-3.4101051
-3.4085137
-3.4072955
-3.4104403
-3.4068668
-3.4064303
-3.4171356
-3.4313683
-3.4097589
-3.4027644
-3.4140232
-3.4007793
-3.4073299
-3.4146894
-3.4069716
-3.4066028
-3.4222838
-3.4161630
-3.4151728
-3.4215911
-3.4034477
-3.4017767
-3.4107778
-3.4163401
-3.4067794
-3.4098358
-3.4245667
-3.4090349
-3.4091660
-3.4071928
-3.4029799
-3.4132231
-3.3996002
-3.4002660
-3.4097804
-3.4191145
-3.4158318
-3.4062833
-3.4146682
-3.4209264
-3.4157464
-3.4048078
-3.4259446
-3.4235798
-3.3972366
-3.4051877
-3.4143043
-3.4079273
-3.4054297
-3.4116816
-3.4102122
-3.4075476
-3.4002326
-3.4026586
-3.4147439
-3.4100422
-3.4205934
-3.4294466
-3.4057624
-3.4044630
-3.4152978
-3.4037962
-3.4047557
-3.4093961
-3.4035742
-3.4101911
-3.4132164
-3.3983888
-3.4008579
-3.4243595
-3.4163839
-3.4046657
-3.4067227
-3.4032038
-3.4052396
-3.4009309
-3.4145351
-3.4021679
-3.4064224
-3.4255689
-3.4076685
-3.4163294
-3.4023967
-3.4064971
-3.4130598
-3.4065551
-3.4209245
-3.4030899
-3.4154498
-3.4280862
-3.3994424
-3.4066117
-3.4199816
-3.4069853
-3.4036033
-3.4006077
-3.4048117
-3.4140515
-3.4063824
-3.4043154
-3.4138624
-3.4123424
-3.4145559
-3.4088470
-3.4116702
-3.4196674
-3.4111965
-3.4244216
-3.4076513
-3.4001693
-3.4059732
-3.4088393
-3.4159446
-3.4015949
-3.4143364
-3.4079304
-3.4071883
-3.4113946
-3.4159426
-3.4204685
-3.3996555
-3.4085433
-3.4027280
-3.4023871
-3.4101431
-3.4038574
-3.4102262
-3.4070270
-3.4183552
-3.4101154
-3.3952480
-3.4132950
-3.4100065
-3.4176251
-3.4148538
-3.4020752
-3.4199781
-3.4183622
-3.4097222
-3.4098016
-3.4057857
-3.4071143
-3.4118346
-3.4125739
-3.4153427
-3.4067691
-3.4071777
-3.4164052
-3.4139738
-3.4213545
-3.4239716
-3.4089664
-3.4128928
-3.4201093
-3.4090453
-3.4115152
-3.4097806
-3.4119690
-3.4061005
-3.4003854
-3.4067711
-3.3992270
-3.3995729
-3.3995120
-3.4057155
-3.4206113
-3.4142755
-3.3962272
-3.4040182
-3.4127367
-3.4051413
-3.4036200
-3.3995682
-3.4064010
-3.4168505
-3.4077176
-3.4112849
-3.4182066
-3.4183406
-3.4183521
-3.4111739
-3.4141863
-3.4147998
-3.4222345
-3.4096177
-3.4046863
-3.4184001
-3.4103814
-3.4265634
-3.4226157
-3.4026934
-3.4023374
-3.4055867
-3.4045439
-3.4006202
-3.4130916
-3.4058561
-3.4039850
-3.4110052
-3.4044639
-3.4137941
-3.4067266
-3.4069003
-3.4074195
-3.4029539
-3.4134034
-3.4119028
-3.4151322
-3.4015933
-3.4045315
-3.4041548
-3.3927351
-3.4025440
-3.4035060
-3.4072088
-3.4118193
-3.4206734
-3.4116460
-3.4161081
-3.4259166
-3.4121454
-3.4098291
-3.4071144
-3.4100563
-3.4169412
-3.4108874
-3.4137227
-3.4169413
-3.4143782
-3.4101922
-3.3972756
-3.4019251
-3.3958501
-3.4101989
-3.4250366
-3.4047992
-3.4116301
-3.4195909
-3.4197399
-3.4134055
-3.4038050
-3.4010712
-3.4108711
-3.4159350
-3.4007624
-3.4110085
-3.4193092
-3.4042228
-3.4008713
-3.3945168
-3.4016003
-3.4129669
-3.3987933
-3.3889942
-3.4078137
-3.4171352
-3.3973547
-3.4043698
-3.3942914
-3.3889446
-3.4221194
-3.4159171
-3.3967113
-3.4048032
-3.4069934
-3.4077064
-3.4265036
-3.4188937
-3.4158907
-3.4278660
-3.4186916
-3.4074912
-3.4014874
-3.4050086
-3.4122688
-3.4015731
-3.3934490
-3.4093620
-3.4138197
-3.4187444
-3.4250951
-3.4339669
-3.4235599
-3.4008173
-3.4072017
-3.4098939
-3.4154639
-3.4051956
-3.4127513
-3.4170106
-3.3960928
-3.4083967
-3.4147447
-3.4070595
-3.3922398
-3.3993100
-3.4066593
-3.4166132
-3.4275657
-3.4125930
-3.4188646
-3.4280310
-3.4319514
-3.4042988
-3.3957081
-3.4067065
-3.3961487
-3.4034894
-3.4061612
-3.4154865
-3.4226318
-3.4230978
-3.3998705
-3.3739181
-3.3631248
-3.3712676
-3.3871175
-3.3925118
-3.4125398
-3.4067954
-3.4178788
-3.4359695
-3.4363651
-3.4521044
-3.4523630
-3.4064863
-3.3857918
-3.3938876
-3.3804231
-3.3934300
-3.4030874
-3.4109678
-3.4091544
-3.4086687
-3.4155439
-3.4273535
-3.4456501
-3.4471177
-3.4603606
-3.4532336
-3.4468779
-3.4353185
-3.4217192
-3.4289245
-3.4266163
-3.4443220
-3.4396726
-3.4011138
-3.3878927
-3.3782096
-3.3728975
-3.3739045
-3.3771764
-3.3964527
-3.3912906
-3.3741778
-3.3789610
-3.3857387
-3.3816664
-3.3669060
-3.3624138
-3.3600629
-3.3755420
-3.4027464
-3.3977920
-3.4153419
-3.4094589
-3.3934049
-3.4220705
-3.4272105
-3.4437074
-3.4953590
-3.5142544
-3.4936176
-3.4783316
-3.4406253
-3.4314494
-3.4207380
-3.3994089
-3.4129497
-3.3936483
-3.3985571
-3.4246661
-3.4413974
-3.4197218
-3.3834742
-3.3514680
-3.3254187
-3.3441524
-3.3524449
-3.3709831
-3.3884291
-3.4117931
-3.4349281
-3.4357604
-3.4542036
-3.4550094
-3.4444455
-3.4231725
-3.4050316
-3.4412172
-3.4442339
-3.4058496
-3.3872996
-3.3558308
-3.3663780
-3.3876142
-3.3928133
-3.4078775
-3.4232800
-3.4488299
-3.4261353
-3.4157723
-3.4270547
-3.4171147
-3.4176257
-3.4061143
-3.3997092
-3.3844688
-3.3616592
-3.3561590
-3.3430719
-3.3600410
-3.3800522
-3.3899922
-3.4170379
-3.4252495
-3.4405133
-3.4452330
-3.4301870
-3.4197486
-3.4449222
-3.4752318
-3.4712918
-3.4909109
-3.4867126
-3.4740644
-3.4489405
-3.4090726
-3.4298960
-3.4028355
-3.3414152
-3.3271252
-3.3267461
-3.3417861
-3.3515249
-3.3471177
-3.3403093
-3.3432989
-3.3790441
-3.4352417
-3.4279835
-3.4120778
-3.4412864
-3.4361148
-3.4485215
-3.4462367
-3.4179243
-3.4233598
-3.4422952
-3.4467395
-3.4544958
-3.4708768
-3.4348200
-3.4240775
-3.4202907
-3.4044330
-3.3705514
-3.3213274
-3.3264926
-3.3126432
-3.3204142
-3.3557847
-3.3995344
-3.4512920
-3.4893880
-3.4838722
-3.4515600
-3.4572547
-3.4660865
-3.4853153
-3.4801106
-3.4884657
-3.5019088
-3.4560503
-3.3777034
-3.3506959
-3.3640996
-3.3332170
-3.3474422
-3.3572902
-3.3347828
-3.3445571
-3.3558166
-3.3416294
-3.3430188
-3.3538833
-3.3666589
-3.4016936
-3.4100469
-3.4417710
-3.4801183
-3.4838402
-3.4854925
-3.4673663
-3.4278980
-3.4245408
-3.4138076
-3.3882842
-3.3761147
-3.3735588
-3.4008607
-3.4113807
-3.4397527
-3.4492476
-3.4574038
-3.4817757
-3.4571401
-3.4104323
-3.3821967
-3.3867067
-3.3735389
-3.3682588
-3.4111866
-3.4708907
-3.4771188
-3.4622496
-3.4331803
-3.4027741
-3.3969391
-3.3829970
-3.4001291
-3.3821788
-3.3615486
-3.3695839
-3.3796907
-3.3911730
-3.3975811
-3.4220661
-3.4426234
-3.4494304
-3.4124071
-3.4147685
-3.3976968
-3.3273173
-3.3441851
-3.3850976
-3.4170841
-3.4143976
-3.4084292
-3.4160617
-3.3953817
-3.4017596
-3.4126406
-3.4320741
-3.4214051
-3.3889844
-3.4225651
-3.4474547
-3.4282569
-3.4515362
-3.4412686
-3.4168405
-3.4490530
-3.4344813
-3.4303015
-3.3989584
-3.3999252
-3.4531035
-3.4571849
-3.4649089
-3.4503143
-3.4415816
-3.4214354
-3.3935711
-3.3686197
-3.3527932
-3.3568558
-3.3600672
-3.3248003
-3.2938665
-3.3251495
-3.3504018
-3.3943567
-3.4081965
-3.4215769
-3.4577454
-3.4759487
-3.4981532
-3.5150509
-3.5401231
-3.5311281
-3.5160272
-3.4562905
-3.4168827
-3.4138830
-3.3222095
-3.2899436
-3.2889724
-3.2693399
-3.2998846
-3.3339531
-3.3570286
-3.3667867
-3.3883995
-3.4164851
-3.4347255
-3.4606273
-3.4990877
-3.5287335
-3.5235963
-3.4713394
-3.4456737
-3.4487775
-3.4222964
-3.3838142
-3.3384334
-3.3277723
-3.3401485
-3.3388376
-3.3260002
-3.3534615
-3.3953223
-3.4322401
-3.4842620
-3.5186874
-3.5217003
-3.4416986
-3.3956024
-3.3848662
-3.3367965
-3.3485761
-3.3835403
-3.3955453
-3.4072646
-3.4249326
-3.4402589
-3.4406472
-3.4417623
-3.4307929
-3.4095115
-3.3997283
-3.3936087
-3.3923273
-3.3603566
-3.3729575
-3.3955566
-3.4044282
-3.4015709
-3.3430709
-3.3722390
-3.3966606
-3.4423808
-3.5035377
-3.4907578
-3.4831251
-3.5067315
-3.5259133
-3.4690098
-3.4384665
-3.4056721
-3.3727953
-3.3735290
-3.3755940
-3.3523560
-3.3142214
-3.3386092
-3.3733458
-3.4035387
-3.4180527
-3.3959739
-3.3626722
-3.3485899
-3.3612101
-3.3907786
-3.3956614
-3.4053942
-3.4031003
-3.3724845
-3.3892292
-3.4179094
-3.4543669
-3.4983801
-3.5148806
-3.5218342
-3.5429537
-3.5433868
-3.5409423
-3.5345961
-3.5019314
-3.4529114
-3.3594272
-3.2604985
-3.2034184
-3.1775038
-3.1841118
-3.2199451
-3.2905599
-3.3618465
-3.4021192
-3.4737336
-3.4789406
-3.4633013
-3.5027974
-3.5385663
-3.5617635
-3.5223751
-3.4775385
-3.4450720
-3.4491710
-3.4398856
-3.4171884
-3.3900416
-3.3625549
-3.3560105
-3.3030748
-3.3150796
-3.3205149
-3.2920914
-3.3256618
-3.3744894
-3.4213893
-3.4541465
-3.4853210
-3.5121991
-3.5327344
