2.47498	
2.47345	
2.47803	
2.47345	
2.47192	
2.47345	
2.47498	
2.47803	
2.46582	
2.46735	
2.46887	
2.4704	
2.46582	
2.46582	
2.46277	
2.46582	
2.4704	
2.46735	
2.46429	
2.46887	
2.47192	
2.46887	
2.47498	
2.4704	
2.48108	
2.47192	
2.47498	
2.47192	
2.47192	
2.47955	
2.47192	
2.47498	
2.46735	
2.47498	
2.47345	
2.47803	
2.47955	
2.47498	
2.47498	
2.47498	
2.47955	
2.47345	
2.47498	
2.4826	
2.4826	
2.47498	
2.48108	
2.47498	
2.47955	
2.47345	
2.48108	
2.47803	
2.47803	
2.47955	
2.47345	
2.47345	
2.47803	
2.47803	
2.47192	
2.47498	
2.47345	
2.47345	
2.47803	
2.47345	
2.47345	
2.4704	
2.47345	
2.47498	
2.47192	
2.47345	
2.47803	
2.46887	
2.47803	
2.47498	
2.48566	
2.47498	
2.47803	
2.47345	
2.47345	
2.48108	
2.47498	
2.48108	
2.48108	
2.4826	
2.47498	
2.48108	
2.47345	
2.47955	
2.47955	
2.47955	
2.47955	
2.47498	
2.47803	
2.48413	
2.47803	
2.47498	
2.4826	
2.47803	
2.47955	
2.47345	
2.47955	
2.47803	
2.47498	
2.47498	
2.47345	
2.47498	
2.47498	
2.46887	
2.47345	
2.47345	
2.47345	
2.47345	
2.47803	
2.47955	
2.47498	
2.47498	
2.47345	
2.47803	
2.47192	
2.47955	
2.48108	
2.47803	
2.48108	
2.47955	
2.48413	
2.47803	
2.4826	
2.47955	
2.48108	
2.4826	
2.47803	
2.47955	
2.48413	
2.4826	
2.47955	
2.47955	
2.47803	
2.47955	
2.47803	
2.47955	
2.47955	
2.47955	
2.48108	
2.49176	
2.48108	
2.4826	
2.48413	
2.48108	
2.47955	
2.47955	
2.48413	
2.4826	
2.48566	
2.48413	
2.47955	
2.48413	
2.47955	
2.47345	
2.47803	
2.48108	
2.47803	
2.47955	
2.47955	
2.47498	
2.47345	
2.47498	
2.47803	
2.47955	
2.4704	
2.47803	
2.47955	
2.47803	
2.4826	
2.47955	
2.48108	
2.4826	
2.47803	
2.47803	
2.48108	
2.4826	
2.47803	
2.48108	
2.48871	
2.4826	
2.47345	
2.47955	
2.47955	
2.4826	
2.47498	
2.48108	
2.47955	
2.47955	
2.47955	
2.48718	
2.47192	
2.47345	
2.47803	
2.47345	
2.47345	
2.4704	
2.47345	
2.47192	
2.47803	
2.47498	
2.46887	
2.47498	
2.47345	
2.46735	
2.47345	
2.48108	
2.47345	
2.47345	
2.47803	
2.47803	
2.47192	
2.47192	
2.47803	
2.47955	
2.46582	
2.47498	
2.48108	
2.47498	
2.47955	
2.47955	
2.47955	
2.47803	
2.47803	
2.47498	
2.47803	
2.47955	
2.47345	
2.47498	
2.4826	
2.48108	
2.47498	
2.48108	
2.47803	
2.47955	
2.47955	
2.48108	
2.47803	
2.47498	
2.47803	
2.48871	
2.47498	
2.4704	
2.47345	
2.46887	
2.47498	
2.4704	
2.47345	
2.47345	
2.47498	
2.47803	
2.47345	
2.47803	
2.47345	
2.46887	
2.47803	
2.4826	
2.47498	
2.48108	
2.47345	
2.47955	
2.47498	
2.47345	
2.47498	
2.47498	
2.46124	
2.47192	
2.47803	
2.4704	
2.47345	
2.47345	
2.47345	
2.47192	
2.47498	
2.47192	
2.47498	
2.47498	
2.47192	
2.47192	
2.47345	
2.47498	
2.47192	
2.47345	
2.46887	
2.47345	
2.46735	
2.47192	
2.47192	
2.4704	
2.46735	
2.4826	
2.46582	
2.46735	
2.47192	
2.46582	
2.46887	
2.46429	
2.47192	
2.4704	
2.47192	
2.4704	
2.46887	
2.47192	
2.46887	
2.46735	
2.46887	
2.4704	
2.46429	
2.47192	
2.46887	
2.47345	
2.46887	
2.4704	
2.46887	
2.4704	
2.45972	
2.47192	
2.47345	
2.46887	
2.47345	
2.47192	
2.46735	
2.46887	
2.46887	
2.4704	
2.46887	
2.46582	
2.46429	
2.46735	
2.4704	
2.4704	
2.47192	
2.47345	
2.46735	
2.4704	
2.46429	
2.47192	
2.46887	
2.47345	
2.4704	
2.48566	
2.47345	
2.47498	
2.47803	
2.47345	
2.47192	
2.47345	
2.47803	
2.47955	
2.47803	
2.47345	
2.47803	
2.47498	
2.47345	
2.47192	
2.47498	
2.47803	
2.4704	
2.47803	
2.47192	
2.47498	
2.47192	
2.47498	
2.47192	
2.47803	
2.46277	
2.47803	
2.47955	
2.47192	
2.47955	
2.47345	
2.47192	
2.47345	
2.4704	
2.47192	
2.47498	
2.47192	
2.47192	
2.47192	
2.47955	
2.47498	
2.47345	
2.48108	
2.47955	
2.4826	
2.47955	
2.48108	
2.4826	
2.48413	
2.48413	
2.49634	
2.48108	
2.48413	
2.48718	
2.48108	
2.48413	
2.48413	
2.48718	
2.48566	
2.48413	
2.47955	
2.4826	
2.4826	
2.4826	
2.48108	
2.48108	
2.4826	
2.48108	
2.48566	
2.48108	
2.49023	
2.48566	
2.48413	
2.48413	
2.48718	
2.4704	
2.48718	
2.4826	
2.48108	
2.48566	
2.48413	
2.48718	
2.4826	
2.48108	
2.4826	
2.48566	
2.4826	
2.4826	
2.48108	
2.48718	
2.48718	
2.48413	
2.48871	
2.48413	
2.48566	
2.48108	
2.48718	
2.48566	
2.48718	
2.48413	
2.49481	
2.48413	
2.48413	
2.48871	
2.47955	
2.48413	
2.48413	
2.48566	
2.48718	
2.48718	
2.48108	
2.48718	
2.48718	
2.48413	
2.48413	
2.48108	
2.4826	
2.48108	
2.48413	
2.48566	
2.48871	
2.48566	
2.48566	
2.48413	
2.4826	
2.4704	
2.48108	
2.4826	
2.48108	
2.48871	
2.48566	
2.48871	
2.48566	
2.4826	
2.48413	
2.48413	
2.4826	
2.47955	
2.4826	
2.48718	
2.48871	
2.48108	
2.48413	
2.47955	
2.48108	
2.47803	
2.48108	
2.48108	
2.48413	
2.47803	
2.48718	
2.48108	
2.48108	
2.48413	
2.47803	
2.48108	
2.47955	
2.48566	
2.48718	
2.4826	
2.48108	
2.48413	
2.4826	
2.4826	
2.47955	
2.48413	
2.48413	
2.48108	
2.47955	
2.48108	
2.4826	
2.48108	
2.48413	
2.47498	
2.48108	
2.47192	
2.47955	
2.48108	
2.47345	
2.47955	
2.47803	
2.47345	
2.47498	
2.46887	
2.47192	
2.47498	
2.47498	
2.47192	
2.47192	
2.47803	
2.48108	
2.47803	
2.47803	
2.47498	
2.47498	
2.47192	
2.47955	
2.47803	
2.48108	
2.47345	
2.4826	
2.47803	
2.47345	
2.47803	
2.47345	
2.47345	
2.4704	
2.47498	
2.48108	
2.4826	
2.47498	
2.47803	
2.47803	
2.47498	
2.47498	
2.47192	
2.47955	
2.47803	
2.47803	
2.47345	
2.48108	
2.48108	
2.47498	
2.47192	
2.47803	
2.47345	
2.47955	
2.47955	
2.47345	
2.47803	
2.47955	
2.47955	
2.47345	
2.47345	
2.47192	
2.47345	
2.47192	
2.46887	
2.47192	
2.47498	
2.47955	
2.47192	
2.46735	
2.47345	
2.47345	
2.47192	
2.47498	
2.47498	
2.4826	
2.47192	
2.48108	
2.47345	
2.47803	
2.47498	
2.47192	
2.47192	
2.4704	
2.47498	
2.47498	
2.47803	
2.47498	
2.47345	
2.47192	
2.47498	
2.47192	
2.4704	
2.47345	
2.47498	
2.47498	
2.47192	
2.47803	
2.47345	
2.47345	
2.46887	
2.47955	
2.46887	
2.47498	
2.47345	
2.47345	
2.47498	
2.47345	
2.48108	
2.46887	
2.4704	
2.4704	
2.47192	
2.47345	
2.4704	
2.4704	
2.47345	
2.47955	
2.47192	
2.47192	
2.47192	
2.47192	
2.46735	
2.4704	
2.46887	
2.47192	
2.46887	
2.47345	
2.4704	
2.47498	
2.47955	
2.47345	
2.47498	
2.47345	
2.48108	
2.47955	
2.47803	
2.47803	
2.47955	
2.47803	
2.47803	
2.47498	
2.47498	
2.47955	
2.47955	
2.47803	
2.47498	
2.4826	
2.47192	
2.48108	
2.47192	
2.47803	
2.47498	
2.47498	
2.4704	
2.47345	
2.47345	
2.47803	
2.48413	
2.47498	
2.47345	
2.47345	
2.47955	
2.47803	
2.47192	
2.47955	
2.47803	
2.48108	
2.47803	
2.47803	
2.47803	
2.47955	
2.47345	
2.48108	
2.47498	
2.4826	
2.47803	
2.4826	
2.47955	
2.48108	
2.48108	
2.47955	
2.47955	
2.47345	
2.48108	
2.47955	
2.48108	
2.47803	
2.47955	
2.47955	
2.47803	
2.47803	
2.47803	
2.47955	
2.48413	
2.4826	
2.4826	
2.48718	
2.4826	
2.48108	
2.47498	
2.48413	
2.48108	
2.4826	
2.48108	
2.47955	
2.4826	
2.47955	
2.4826	
2.47498	
2.47498	
2.47345	
2.4826	
2.47345	
2.47955	
2.47498	
2.48108	
2.47955	
2.47803	
2.4704	
2.47498	
2.47803	
2.47192	
2.47803	
2.47498	
2.48566	
2.47803	
2.47955	
2.47955	
2.4826	
2.48108	
2.48413	
2.4826	
2.48108	
2.48566	
2.48566	
2.48871	
2.48413	
2.4826	
2.4826	
2.48566	
2.4826	
2.48566	
2.4826	
2.49023	
2.48413	
2.48108	
2.48718	
2.4826	
2.4826	
2.47498	
2.4826	
2.47955	
2.48413	
2.4826	
2.47803	
2.48108	
2.48108	
2.48108	
2.47955	
2.48108	
2.48108	
2.4826	
2.4826	
2.48108	
2.47955	
2.48108	
2.48566	
2.4826	
2.47803	
2.48566	
2.4826	
2.47803	
2.48566	
2.4826	
2.48871	
2.4826	
2.48566	
2.4826	
2.48413	
2.48718	
2.47955	
2.4826	
2.48566	
2.48566	
2.48413	
2.48718	
2.4826	
2.48718	
2.48566	
2.48566	
2.48718	
2.48413	
2.48718	
2.49329	
2.48566	
2.4826	
2.48871	
2.48566	
2.49023	
2.48108	
2.48718	
2.48718	
2.48718	
2.48413	
2.4826	
2.48871	
2.48566	
2.48108	
2.48413	
2.48871	
2.48566	
2.48718	
2.48871	
2.48871	
2.48566	
2.48871	
2.48718	
2.48566	
2.47955	
2.48413	
2.48566	
2.4826	
2.48718	
2.48566	
2.48871	
2.48108	
2.48566	
2.48718	
2.48566	
2.48871	
2.4826	
2.48413	
2.48871	
2.48413	
2.4826	
2.48718	
2.4826	
2.4826	
2.4826	
2.48413	
2.48566	
2.4826	
2.48413	
2.49329	
2.48871	
2.48718	
2.49023	
2.48718	
2.48871	
2.48566	
2.49023	
2.48566	
2.48566	
2.4826	
2.47345	
2.48566	
2.4826	
2.47955	
2.47955	
2.48718	
2.4826	
2.48566	
2.48566	
2.48718	
2.48566	
2.48718	
2.48566	
2.48718	
2.47955	
2.48871	
2.49176	
2.48566	
2.48718	
2.48718	
2.49329	
2.48566	
2.49023	
2.48566	
2.48718	
2.48871	
2.48413	
2.48566	
2.49481	
2.48566	
2.48718	
2.48718	
2.48871	
2.49023	
2.49023	
2.48871	
2.49176	
2.48871	
2.48718	
2.49481	
2.48718	
2.48413	
2.49023	
2.48566	
2.48718	
2.48413	
2.48871	
2.48718	
2.48871	
2.48718	
2.48108	
2.48871	
2.4826	
2.47498	
2.48108	
2.48566	
2.47955	
2.47803	
2.47955	
2.47955	
2.47803	
2.48108	
2.48108	
2.48108	
2.4704	
2.48108	
2.48413	
2.48108	
2.4826	
2.48566	
2.48718	
2.48108	
2.48108	
2.47803	
2.48108	
2.48566	
2.47803	
2.47955	
2.48566	
2.48108	
2.47345	
2.48108	
2.47803	
2.48108	
2.47498	
2.48108	
2.47345	
2.47498	
2.47498	
2.48871	
2.47955	
2.4826	
2.4826	
2.48108	
2.48108	
2.4826	
2.48566	
2.48871	
2.48718	
2.48718	
2.48718	
2.48413	
2.48871	
2.48108	
2.48413	
2.48718	
2.48566	
2.48871	
2.48718	
2.49023	
2.48566	
2.48718	
2.48566	
2.48413	
2.47192	
2.48413	
2.49023	
2.48718	
2.48718	
2.48871	
2.48718	
2.48566	
2.48871	
2.48871	
2.49176	
2.48871	
2.48718	
2.49176	
2.49329	
2.49023	
2.48718	
2.49176	
2.48718	
2.48871	
2.48413	
2.48718	
2.48413	
2.48718	
2.4826	
2.49634	
2.48566	
2.48718	
2.48871	
2.48566	
2.48718	
2.48566	
2.48566	
2.48413	
2.48566	
2.48413	
2.48566	
2.48413	
2.48413	
2.47955	
2.4826	
2.48718	
2.48108	
2.48413	
2.4826	
2.48566	
2.4826	
2.48413	
2.48413	
2.48566	
2.47192	
2.48566	
2.48413	
2.4826	
2.48718	
2.48566	
2.48566	
2.4826	
2.48413	
2.48413	
2.48566	
2.48413	
2.48108	
2.48108	
2.48871	
2.48413	
2.48108	
2.48413	
2.47955	
2.4826	
2.47803	
2.48413	
2.48108	
2.4826	
2.48108	
2.49329	
2.48566	
2.4826	
2.48413	
2.4826	
2.4826	
2.48718	
2.48871	
2.49023	
2.49329	
2.48718	
2.49023	
2.49023	
2.48871	
2.48566	
2.48718	
2.49023	
2.48413	
2.48718	
2.48566	
2.49023	
2.48566	
2.48718	
2.4826	
2.48718	
2.47345	
2.48413	
2.48718	
2.48413	
2.49023	
2.48718	
2.48566	
2.48566	
2.48871	
2.48566	
2.48871	
2.48718	
2.48871	
2.49176	
2.49481	
2.49329	
2.49023	
2.49481	
2.49329	
2.49329	
2.49023	
2.49176	
2.48871	
2.49634	
2.49023	
2.50397	
2.48871	
2.49176	
2.49634	
2.48871	
2.49481	
2.49634	
2.49329	
2.49634	
2.49634	
2.48871	
2.49176	
2.49634	
2.49176	
2.48871	
2.48871	
2.49481	
2.48871	
2.49176	
2.49176	
2.49634	
2.49329	
2.49329	
2.49023	
2.49634	
2.48566	
2.49176	
2.49634	
2.49023	
2.49939	
2.49634	
2.49329	
2.49176	
2.48871	
2.49023	
2.49023	
2.49023	
2.49023	
2.49176	
2.49481	
2.49329	
2.49023	
2.49329	
2.49023	
2.49023	
2.48871	
2.49176	
2.49023	
2.49634	
2.49023	
2.50092	
2.49023	
2.48566	
2.49176	
2.48718	
2.48566	
2.48871	
2.49023	
2.49481	
2.49481	
2.49176	
2.49023	
2.49329	
2.49023	
2.48871	
2.48718	
2.48871	
2.48566	
2.49023	
2.48566	
2.49634	
2.48718	
2.48566	
2.4826	
2.48871	
2.48108	
2.48718	
2.48718	
2.48566	
2.48871	
2.49023	
2.48718	
2.48718	
2.48566	
2.48718	
2.49176	
2.49023	
2.48413	
2.48718	
2.49176	
2.48871	
2.48871	
2.48871	
2.48566	
2.49023	
2.48413	
2.48718	
2.48566	
2.48871	
2.48566	
2.49329	
2.48718	
2.48413	
2.48871	
2.48413	
2.48413	
2.48413	
2.48566	
2.48566	
2.48718	
2.48413	
2.48413	
2.48413	
2.48718	
2.48108	
2.48108	
2.48413	
2.47955	
2.48108	
2.47955	
2.48566	
2.47955	
2.47955	
2.47345	
2.47955	
2.47498	
2.47803	
2.47803	
2.47192	
2.47955	
2.47803	
2.48108	
2.47498	
2.47498	
2.47345	
2.47955	
2.48108	
2.47345	
2.47345	
2.4826	
2.48108	
2.47803	
2.47955	
2.47803	
2.47955	
2.47345	
2.4826	
2.47955	
2.4826	
2.48108	
2.4826	
2.4826	
2.48108	
2.48566	
2.48108	
2.48413	
2.48108	
2.48871	
2.49023	
2.48718	
2.4826	
2.4826	
2.4826	
2.48413	
2.47955	
2.47955	
2.47955	
2.48108	
2.47955	
2.47498	
2.4826	
2.47498	
2.48108	
2.47345	
2.48108	
2.47345	
2.47803	
2.47345	
2.47345	
2.47498	
2.47955	
2.48108	
2.47192	
2.47192	
2.47192	
2.47803	
2.47498	
2.47345	
2.47345	
2.47803	
2.47955	
2.47192	
2.47498	
2.47192	
2.47498	
2.47192	
2.47955	
2.47955	
2.4826	
2.47803	
2.47955	
2.47498	
2.47803	
2.47498	
2.47345	
2.47803	
2.47192	
2.47955	
2.47803	
2.48108	
2.47192	
2.47498	
2.47498	
2.47803	
2.47498	
2.47192	
2.47955	
2.47955	
2.47498	
2.47345	
2.47955	
2.47345	
2.47345	
2.46887	
2.47498	
2.47192	
2.47192	
2.47345	
2.47192	
2.47345	
2.47345	
2.47955	
2.47192	
2.4704	
2.47192	
2.47345	
2.46887	
2.4704	
2.4704	
2.4704	
2.4704	
2.46735	
2.46735	
2.46887	
2.46887	
2.46582	
2.47192	
2.46887	
2.47345	
2.46887	
2.47498	
2.46887	
2.47192	
2.47345	
2.46887	
2.47345	
2.46887	
2.47803	
2.47498	
2.47498	
2.47345	
2.47345	
2.47345	
2.47803	
2.47498	
2.47345	
2.47345	
2.47803	
2.47345	
2.47345	
2.48108	
2.47345	
2.47803	
2.46735	
2.47803	
2.47345	
2.47498	
2.47498	
2.46735	
2.47192	
2.4704	
2.47345	
2.46887	
2.46887	
2.46735	
2.4704	
2.46735	
2.47192	
2.46582	
2.4704	
2.47498	
2.4704	
2.46582	
2.46887	
2.47345	
2.46735	
2.47345	
2.47498	
2.47803	
2.46887	
2.47345	
2.4704	
2.47345	
2.47955	
2.4704	
2.47345	
2.4704	
2.47192	
2.48108	
2.47955	
2.47498	
2.47803	
2.47498	
2.47498	
2.47345	
2.47345	
2.47192	
2.48413	
2.47803	
2.47345	
2.4826	
2.47498	
2.47803	
2.4704	
2.47498	
2.47345	
2.47345	
2.47192	
2.47192	
2.47498	
2.47345	
2.4704	
2.47192	
2.47498	
2.4704	
2.47345	
2.47192	
2.47498	
2.47192	
2.47345	
2.47498	
2.47955	
2.46887	
2.4704	
2.4704	
2.46735	
2.47345	
2.47192	
2.4704	
2.46735	
2.46887	
2.46735	
2.4704	
2.47192	
2.46887	
2.47192	
2.46887	
2.47345	
2.47192	
2.47345	
2.47345	
2.47345	
2.47498	
2.47803	
2.47803	
2.47498	
2.47498	
2.48108	
2.47345	
2.4704	
2.47955	
2.47345	
2.47803	
2.4704	
2.48108	
2.47498	
2.47803	
2.47498	
2.47192	
2.47345	
2.47803	
2.4704	
2.47498	
2.47803	
2.4704	
2.47192	
2.46887	
2.47498	
2.46735	
2.47192	
2.4704	
2.4704	
2.46735	
2.47192	
2.47192	
2.46735	
2.47345	
2.46887	
2.47803	
2.46887	
2.47498	
2.46887	
2.47192	
2.47498	
2.46887	
2.4704	
2.47345	
2.47345	
2.4704	
2.47192	
2.46887	
2.47192	
2.46887	
2.4704	
2.47192	
2.47345	
2.47345	
2.48566	
2.47498	
2.47192	
2.47955	
2.4704	
2.47498	
2.4704	
2.47955	
2.47345	
2.47803	
2.47498	
2.47192	
2.47803	
2.47803	
2.46887	
2.47498	
2.47955	
2.47498	
2.47955	
2.47498	
2.48108	
2.47803	
2.47803	
2.48108	
2.48108	
2.47192	
2.4826	
2.4826	
2.48108	
2.4826	
2.48413	
2.4826	
2.47955	
2.4826	
2.47955	
2.47955	
2.4826	
2.47498	
2.47803	
2.48718	
2.48108	
2.47955	
2.48108	
2.47955	
2.47955	
2.47803	
2.4826	
2.48108	
2.47803	
2.47955	
2.48718	
2.48108	
2.47803	
2.4826	
2.47803	
2.47955	
2.47498	
2.48413	
2.48108	
2.4826	
2.47955	
2.47803	
2.4826	
2.48108	
2.47192	
2.48108	
2.48413	
2.47803	
2.48108	
2.47955	
2.4826	
2.4826	
2.4826	
2.48413	
2.48718	
2.47345	
2.48566	
2.48718	
2.4826	
2.48871	
2.48718	
2.48566	
2.48108	
2.48718	
2.4826	
2.4826	
2.48718	
2.4826	
2.48718	
2.49176	
2.48566	
2.4826	
2.48871	
2.48566	
2.48566	
2.48566	
2.48718	
2.48718	
2.48566	
2.48566	
2.49329	
2.48566	
2.48413	
2.48718	
2.47955	
2.48718	
2.48718	
2.49176	
2.48566	
2.48871	
2.48871	
2.48566	
2.48566	
2.48413	
2.48108	
2.48413	
2.48413	
2.48108	
2.48566	
2.4826	
2.48871	
2.4826	
2.4826	
2.48108	
2.48566	
2.4704	
2.48108	
2.48413	
2.47955	
2.48413	
2.4826	
2.48413	
2.47955	
2.47955	
2.48108	
2.48108	
2.47955	
2.47498	
2.4826	
2.49023	
2.48108	
2.47955	
2.4826	
2.48108	
2.48413	
2.47803	
2.48566	
2.48108	
2.47955	
2.47955	
2.48871	
2.47955	
2.47803	
2.47955	
2.47498	
2.48108	
2.48413	
2.4826	
2.4826	
2.48413	
2.48108	
2.47955	
2.48566	
2.4826	
2.47803	
2.4826	
2.48413	
2.48108	
2.48108	
2.48108	
2.48413	
2.47955	
2.48413	
2.4826	
2.4826	
2.46887	
2.48413	
2.48413	
2.48108	
2.48566	
2.48413	
2.47955	
2.4826	
2.4826	
2.4826	
2.48718	
2.4826	
2.47803	
2.48108	
2.48108	
2.48566	
2.48108	
2.48718	
2.4826	
2.48566	
2.47803	
2.48108	
2.48108	
2.48108	
2.48108	
2.49023	
2.47955	
2.47803	
2.48108	
2.47803	
2.47955	
2.48413	
2.48413	
2.48718	
2.48871	
2.4826	
2.48108	
2.4826	
2.48108	
2.47955	
2.47955	
2.48566	
2.47955	
2.48108	
2.4826	
2.48871	
2.48413	
2.48566	
2.48566	
2.49023	
2.47803	
2.48566	
2.48871	
2.48413	
2.49023	
2.48413	
2.48566	
2.4826	
2.4826	
2.48108	
2.49023	
2.48566	
2.4826	
2.48566	
2.48871	
2.48718	
2.48413	
2.49023	
2.48566	
2.48718	
2.47955	
2.48566	
2.48413	
2.48566	
2.48108	
2.49023	
2.47803	
2.47498	
2.47955	
2.47345	
2.47498	
2.47498	
2.47345	
2.4826	
2.47803	
2.47498	
2.47803	
2.48108	
2.47955	
2.47803	
2.47955	
2.47955	
2.47803	
2.47803	
2.47498	
2.48413	
2.47803	
2.47955	
2.47803	
2.47803	
2.46887	
2.4826	
2.48108	
2.47955	
2.48718	
2.48413	
2.48413	
2.4826	
2.47955	
2.47955	
2.48566	
2.48566	
2.47498	
2.48718	
2.49023	
2.48718	
2.48871	
2.49023	
2.48718	
2.49023	
2.48413	
2.48871	
2.48871	
2.49481	
2.48566	
2.49481	
2.48718	
2.48718	
2.48871	
2.48566	
2.49176	
2.48871	
2.49023	
2.49176	
2.49329	
2.48413	
2.48718	
2.49176	
2.48871	
2.48413	
2.48718	
2.48871	
2.48871	
2.49023	
2.48566	
2.49481	
2.48413	
2.48871	
2.4826	
2.48871	
2.48108	
2.48566	
2.48566	
2.4826	
2.49176	
2.48413	
2.48871	
2.48413	
2.48108	
2.48108	
2.48566	
2.48566	
2.47955	
2.48413	
2.49023	
2.48871	
2.48871	
2.49023	
2.48871	
2.49023	
2.48718	
2.49023	
2.48871	
2.49481	
2.49023	
2.49481	
2.49023	
2.48871	
2.49176	
2.48566	
2.48718	
2.48108	
2.48566	
2.48871	
2.48718	
2.4826	
2.48718	
2.48413	
2.48566	
2.48413	
2.48566	
2.49023	
2.48566	
2.48566	
2.48413	
2.48871	
2.48413	
2.48566	
2.47955	
2.48718	
2.47955	
2.48566	
2.48566	
2.48413	
2.48871	
2.48718	
2.49176	
2.49023	
2.48718	
2.48718	
2.49329	
2.49329	
2.49176	
2.48871	
2.49023	
2.49634	
2.49023	
2.49329	
2.48871	
2.49176	
2.48718	
2.49023	
2.49176	
2.49786	
2.49023	
2.49023	
2.48718	
2.48871	
2.49329	
2.48871	
2.48718	
2.4826	
2.48871	
2.49329	
2.48871	
2.48413	
2.49176	
2.48871	
2.48871	
2.48718	
2.48718	
2.49176	
2.49023	
2.49176	
2.48718	
2.49329	
2.48566	
2.48871	
2.48718	
2.49329	
2.49023	
2.48871	
2.48871	
2.48566	
2.49481	
2.49176	
2.49786	
2.49176	
2.49176	
2.48871	
2.49176	
2.49176	
2.49176	
2.49023	
2.49023	
2.49481	
2.49023	
2.49023	
2.49176	
2.49023	
2.49023	
2.49481	
2.49176	
2.49481	
2.49023	
2.49329	
2.49176	
2.49481	
2.49786	
2.49176	
2.49176	
2.48718	
2.49023	
2.49481	
2.49329	
2.49481	
2.49176	
2.49176	
2.49176	
2.49023	
2.48718	
2.49176	
2.49329	
2.49176	
2.49176	
2.49634	
2.49329	
2.49176	
2.48718	
2.49939	
2.49786	
2.49786	
2.49634	
2.49176	
2.49481	
2.49939	
2.50092	
2.49329	
2.49329	
2.49329	
2.49481	
2.49176	
2.49329	
2.49481	
2.49786	
2.49939	
2.49786	
2.49329	
2.49786	
2.50092	
2.49329	
2.49939	
2.49786	
2.50244	
2.49481	
2.49939	
2.49939	
2.49786	
2.50244	
2.49939	
2.49634	
2.49634	
2.49786	
2.50092	
2.50397	
2.50092	
2.50244	
2.49939	
2.50397	
2.49939	
2.50092	
2.50397	
2.50549	
2.50397	
2.50397	
2.50854	
2.50092	
2.49786	
2.49481	
2.50244	
2.50244	
2.50092	
2.49939	
2.49939	
2.50092	
2.50397	
2.50854	
2.50244	
2.49939	
2.50092	
2.50397	
2.50854	
2.50549	
2.50854	
2.51007	
2.50549	
2.50854	
2.50092	
2.50549	
2.51007	
2.49939	
2.5116	
2.50854	
2.5116	
2.50854	
2.5116	
2.50854	
2.51312	
2.5116	
2.5116	
2.50854	
2.51007	
2.51312	
2.51617	
2.51617	
2.5116	
2.51465	
2.51007	
2.51312	
2.51312	
2.5116	
2.5116	
2.51465	
2.5116	
2.50549	
2.51312	
2.50854	
2.5116	
2.50397	
2.51465	
2.51007	
2.5116	
2.5116	
2.50397	
2.51007	
2.51007	
2.50854	
2.50549	
2.51007	
2.51007	
2.51007	
2.50549	
2.50549	
2.51007	
2.50854	
2.50854	
2.51007	
2.50244	
2.51007	
2.51007	
2.50244	
2.51007	
2.50854	
2.5116	
2.50397	
2.51007	
2.50854	
2.50854	
2.50854	
2.50549	
2.50549	
2.51465	
2.51312	
2.50397	
2.51007	
2.51007	
2.51007	
2.50549	
2.51007	
2.50854	
2.50854	
2.50854	
2.51617	
2.5116	
2.51007	
2.51312	
2.50854	
2.51007	
2.50397	
2.5116	
2.50397	
2.50549	
2.50397	
2.50397	
2.51007	
2.50854	
2.50397	
2.50397	
2.50854	
2.51007	
2.5116	
2.51007	
2.50854	
2.50549	
2.5116	
2.50854	
2.51007	
2.50092	
2.51312	
2.50549	
2.50549	
2.51007	
2.50397	
2.5116	
2.50092	
2.50397	
2.50244	
2.50397	
2.50549	
2.50397	
2.50244	
2.5116	
2.50397	
2.50244	
2.50244	
2.50092	
2.50244	
2.49786	
2.50397	
2.50244	
2.50244	
2.50092	
2.51312	
2.50397	
2.50092	
2.51007	
2.49939	
2.50244	
2.49939	
2.49939	
2.49786	
2.50397	
2.49939	
2.49786	
2.50092	
2.49939	
2.48871	
2.49329	
2.49939	
2.49786	
2.49786	
2.50092	
2.50244	
2.50244	
2.50397	
2.50854	
2.50854	
2.49634	
2.50397	
2.50549	
2.50244	
2.50854	
2.50549	
2.5116	
2.50397	
2.50549	
2.50244	
2.50854	
2.5116	
2.50397	
2.50854	
2.51312	
2.50397	
2.50092	
2.50092	
2.50244	
2.50549	
2.50092	
2.49939	
2.49939	
2.49786	
2.49634	
2.51007	
2.49634	
2.49786	
2.50092	
2.49786	
2.49329	
2.49634	
2.50244	
2.50092	
2.50244	
2.49939	
2.49939	
2.50092	
2.49939	
2.49481	
2.49786	
2.50244	
2.49939	
2.50244	
2.49634	
2.50244	
2.50397	
2.50397	
2.49939	
2.50092	
2.48871	
2.50397	
2.49786	
2.49939	
2.50397	
2.50397	
2.50244	
2.50092	
2.50549	
2.50244	
2.50854	
2.50549	
2.50244	
2.50244	
2.5116	
2.50549	
2.50397	
2.51007	
2.50854	
2.50854	
2.50549	
2.5116	
2.51007	
2.5116	
2.50854	
2.52075	
2.50854	
2.50397	
2.50854	
2.50244	
2.50397	
2.51007	
2.51007	
2.51465	
2.51312	
2.51007	
2.50854	
2.5116	
2.51312	
2.50397	
2.51007	
2.51007	
2.50854	
2.50854	
2.50397	
2.51312	
2.50549	
2.51007	
2.51007	
2.50854	
2.49329	
2.50854	
2.50549	
2.50092	
2.50549	
2.50397	
2.50092	
2.50397	
2.50244	
2.50397	
2.51007	
2.50549	
2.50244	
2.50549	
2.51007	
2.50549	
2.50397	
2.50854	
2.50397	
2.50549	
2.50244	
2.51007	
2.50549	
2.50244	
2.50244	
2.51617	
2.50397	
2.50092	
2.50854	
2.50397	
2.50397	
2.50549	
2.51007	
2.50854	
2.5116	
2.50854	
2.51007	
2.5116	
2.51007	
2.50854	
2.50854	
2.5116	
2.50854	
2.51312	
2.5116	
2.51465	
2.51007	
2.50854	
2.50397	
2.50854	
2.49481	
2.50244	
2.50397	
2.50092	
2.50397	
2.50549	
2.50092	
2.49634	
2.49786	
2.49939	
2.50244	
2.50092	
2.50092	
2.50244	
2.50549	
2.50854	
2.50854	
2.50854	
2.51007	
2.50549	
2.50244	
2.50854	
2.50549	
2.50854	
2.50549	
2.5177	
2.50549	
2.50549	
2.5116	
2.50854	
2.5116	
2.51007	
2.51312	
2.51465	
2.51465	
2.51007	
2.51312	
2.51465	
2.5116	
2.50549	
2.50854	
2.51312	
2.50549	
2.51007	
2.51007	
2.51312	
2.5116	
2.51007	
2.51007	
2.51312	
2.49939	
2.51312	
2.51007	
2.50549	
2.5116	
2.5116	
2.50549	
2.50244	
2.50549	
2.50854	
2.50549	
2.50397	
2.50092	
2.50244	
2.51007	
2.50397	
2.50092	
2.50549	
2.50397	
2.50549	
2.49939	
2.50549	
2.50397	
2.50854	
2.50397	
2.51465	
2.50244	
2.50397	
2.51007	
2.50244	
2.50092	
2.49786	
2.50092	
2.50397	
2.50397	
2.49939	
2.50244	
2.50244	
2.49939	
2.49786	
2.50244	
2.49939	
2.50092	
2.50397	
2.50397	
2.51007	
2.50397	
2.50854	
2.50854	
2.51312	
2.49939	
2.51007	
2.51007	
2.50397	
2.50854	
2.50549	
2.50549	
2.50854	
2.50397	
2.50397	
2.5116	
2.51007	
2.50854	
2.50854	
2.5116	
2.51617	
2.5116	
2.51617	
2.51312	
2.51465	
2.51007	
2.51465	
2.51465	
2.51923	
2.51007	
2.51923	
2.51312	
2.50854	
2.51465	
2.51007	
2.50854	
2.50549	
2.50854	
2.50549	
2.50549	
2.50092	
2.50397	
2.51007	
2.50854	
2.50092	
2.50092	
2.50397	
2.50092	
2.50854	
2.50549	
2.50549	
2.49939	
2.50244	
2.49939	
2.50397	
2.49939	
2.50397	
2.50244	
2.50244	
2.50549	
2.50244	
2.50549	
2.50244	
2.50092	
2.50092	
2.50092	
2.49939	
2.49939	
2.50397	
2.51007	
2.50549	
2.50244	
2.50244	
2.50397	
2.50244	
2.50244	
2.50397	
2.50092	
2.50397	
2.50397	
2.50549	
2.50244	
2.50092	
2.50854	
2.49939	
2.50092	
2.49786	
2.50397	
2.50549	
2.51007	
2.50397	
2.51007	
2.50854	
2.50854	
2.49786	
2.50092	
2.50397	
2.50549	
2.50549	
2.50549	
2.50549	
2.50244	
2.50549	
2.50244	
2.50854	
2.50549	
2.50854	
2.50854	
2.50397	
2.51007	
2.50549	
2.5116	
2.50244	
2.50092	
2.50244	
2.51007	
2.50397	
2.50549	
2.50397	
2.51007	
2.51312	
2.50854	
2.50854	
2.51312	
2.5116	
2.50549	
2.51312	
2.51465	
2.51617	
2.51007	
2.51312	
2.5116	
2.51007	
2.5116	
2.50854	
2.50854	
2.50549	
2.51007	
2.5116	
2.51312	
2.50397	
2.50549	
2.50549	
2.50397	
2.50244	
2.50244	
2.50854	
2.50549	
2.50397	
2.50549	
2.5116	
2.50854	
2.50397	
2.50397	
2.51007	
2.50397	
2.50854	
2.5116	
2.50854	
2.51312	
2.51312	
2.51923	
2.5116	
2.5116	
2.50397	
2.51007	
2.51312	
2.51465	
2.51312	
2.5116	
2.51312	
2.51007	
2.50397	
2.50549	
2.5116	
2.50549	
2.51007	
2.5116	
2.51312	
2.50549	
2.51312	
2.5116	
2.51007	
2.51617	
2.5116	
2.51312	
2.51007	
2.51617	
2.51617	
2.51923	
2.51617	
2.5177	
2.51617	
2.51617	
2.51617	
2.5116	
2.51007	
2.5177	
2.51312	
2.51312	
2.5177	
2.51465	
2.50854	
2.50244	
2.51465	
2.51312	
2.51465	
2.51312	
2.5116	
2.51312	
2.51617	
2.5177	
2.5116	
2.51007	
2.5116	
2.51617	
2.5116	
2.5116	
2.5116	
2.51617	
2.51617	
2.51465	
2.51312	
2.51617	
2.52075	
2.51312	
2.5177	
2.51923	
2.52228	
2.51312	
2.5177	
2.51617	
2.51465	
2.52075	
2.51007	
2.5116	
2.50854	
2.51007	
2.51617	
2.5177	
2.5116	
2.51465	
2.5116	
2.51617	
2.51465	
2.51007	
2.5116	
2.51923	
2.51465	
2.51312	
2.5177	
2.51007	
2.51617	
2.51007	
2.51617	
2.5116	
2.51312	
2.5116	
2.51007	
2.51007	
2.51007	
2.50549	
2.50854	
2.5116	
2.51312	
2.51312	
2.51312	
2.5116	
2.51007	
2.51007	
2.51312	
2.51312	
2.50854	
2.50854	
2.51465	
2.5116	
2.51465	
2.5116	
2.5177	
2.51007	
2.50854	
2.51007	
2.5116	
2.51617	
2.51007	
2.5116	
2.51312	
2.5116	
2.51007	
2.51007	
2.50854	
2.50854	
2.50549	
2.5116	
2.50549	
2.50854	
2.51007	
2.51312	
2.50397	
2.50092	
2.5116	
2.50244	
2.50854	
2.50244	
2.51007	
2.5116	
2.5116	
2.51007	
2.50549	
2.5116	
2.5116	
2.50397	
2.50854	
2.50854	
2.50244	
2.50397	
2.50854	
2.50549	
2.50397	
2.50854	
2.5116	
2.51007	
2.50092	
2.51007	
2.5116	
2.50397	
2.51312	
2.50397	
2.5116	
2.50244	
2.50549	
2.50244	
2.51007	
2.5116	
2.51007	
2.50854	
2.51617	
2.50854	
2.51007	
2.51312	
2.51007	
2.5116	
2.50397	
2.51007	
2.50854	
2.50854	
2.50854	
2.51923	
2.50854	
2.50854	
2.51312	
2.50854	
2.5116	
2.50549	
2.51312	
2.5116	
2.51007	
2.51007	
2.50549	
2.50549	
2.50549	
2.49481	
2.50244	
2.50549	
2.50092	
2.50397	
2.49939	
2.50549	
2.50397	
2.50092	
2.50092	
2.50397	
2.49329	
2.50397	
2.50549	
2.49939	
2.50397	
2.50549	
2.50549	
2.50092	
2.50244	
2.50244	
2.50244	
2.50549	
2.50549	
2.50397	
2.51465	
2.51007	
2.50549	
2.51007	
2.50854	
2.50854	
2.50092	
2.50854	
2.50397	
2.50244	
2.50397	
2.51465	
2.50854	
2.50092	
2.50397	
2.49939	
2.50244	
2.49939	
2.50854	
2.50092	
2.50244	
2.50397	
2.50244	
2.50549	
2.50092	
2.49481	
2.49634	
2.50092	
2.49634	
2.49786	
2.49786	
2.49939	
2.49939	
2.50244	
2.50549	
2.50244	
2.49023	
2.50092	
2.50397	
2.49939	
2.50244	
2.50549	
2.50244	
2.49939	
2.49786	
2.49786	
2.49939	
2.49939	
2.49329	
2.49481	
2.50244	
2.49786	
2.49481	
2.49786	
2.49634	
2.49634	
2.49481	
2.49634	
2.49329	
2.49634	
2.49634	
2.50854	
2.49786	
2.49939	
2.49786	
2.49329	
2.49634	
2.49634	
2.49786	
2.50092	
2.49786	
2.49634	
2.49786	
2.50092	
2.49786	
2.49481	
2.50092	
2.50397	
2.49786	
2.50244	
2.50549	
2.50854	
2.49939	
2.50397	
2.50397	
2.50397	
2.49023	
2.49939	
2.50244	
2.50092	
2.49939	
2.50092	
2.50092	
2.49939	
2.50092	
2.50092	
2.50244	
2.50092	
2.49481	
2.49939	
2.50244	
2.50092	
2.49634	
2.49939	
2.50092	
2.49786	
2.49481	
2.49939	
2.49634	
2.49786	
2.49939	
2.51007	
2.49634	
2.49786	
2.49939	
2.49329	
2.49481	
2.49786	
2.49939	
2.49786	
2.50092	
2.49481	
2.49786	
2.49786	
2.49634	
2.49481	
2.49329	
2.49786	
2.49329	
2.49634	
2.49786	
2.50397	
2.49786	
2.50092	
2.49634	
2.49939	
2.49023	
2.49939	
2.49786	
2.49329	
2.49939	
2.49786	
2.49481	
2.49634	
2.49481	
2.49481	
2.49786	
2.49634	
2.49329	
2.49939	
2.49634	
2.49634	
2.49481	
2.49786	
2.49176	
2.49329	
2.48566	
2.49481	
2.49329	
2.49481	
2.49176	
2.50397	
2.49481	
2.49634	
2.49786	
2.49329	
2.49786	
2.49786	
2.50244	
2.50092	
2.50092	
2.49786	
2.49939	
2.50092	
2.50244	
2.49939	
2.50092	
2.50397	
2.50092	
2.50397	
2.50244	
2.51007	
2.50092	
2.50244	
2.49939	
2.50549	
2.49329	
2.50549	
2.50092	
2.49939	
2.50397	
2.50244	
2.50092	
2.49939	
2.50092	
2.49939	
2.50397	
2.50244	
2.49786	
2.49786	
2.50549	
2.50549	
2.50549	
2.5116	
2.50549	
2.50854	
2.50397	
2.50549	
2.50397	
2.50854	
2.50854	
2.51617	
2.50854	
2.50549	
2.51007	
2.50244	
2.50397	
2.50854	
2.50549	
2.5116	
2.50854	
2.50549	
2.50549	
2.51007	
2.50549	
2.50244	
2.50244	
2.50244	
2.50092	
2.50854	
2.50397	
2.51007	
2.50397	
2.50549	
2.50092	
2.50397	
2.49939	
2.50549	
2.50854	
2.49939	
2.51007	
2.5116	
2.5116	
2.51007	
2.50549	
2.50549	
2.50244	
2.50549	
2.50092	
2.50397	
2.50854	
2.50397	
2.50397	
2.50854	
2.51007	
2.51007	
2.50549	
2.5116	
2.51312	
2.5177	
2.51007	
2.51617	
2.50397	
2.51007	
2.51312	
2.50397	
2.5116	
2.50549	
2.51007	
2.51465	
2.51312	
2.5116	
2.5116	
2.51465	
2.51465	
2.50397	
2.50397	
2.50854	
2.50244	
2.51007	
2.50549	
2.51007	
2.50549	
2.50854	
2.50092	
2.50549	
2.50092	
2.50397	
2.50854	
2.50092	
2.51007	
2.50549	
2.5116	
2.50549	
2.50397	
2.50244	
2.50854	
2.50854	
2.50397	
2.50549	
2.51007	
2.5116	
2.50854	
2.50397	
2.50549	
2.50854	
2.50244	
2.50854	
2.50397	
2.50854	
2.50397	
2.51007	
2.50854	
2.50397	
2.51007	
2.50244	
2.50244	
2.50092	
2.50854	
2.51465	
2.5116	
2.50549	
2.5116	
2.5116	
2.51465	
2.51007	
2.50854	
2.50854	
2.51007	
2.5116	
2.51007	
2.51465	
2.51312	
2.51465	
2.51007	
2.51617	
2.51465	
2.51312	
2.5116	
2.50854	
2.51465	
2.5116	
2.51617	
2.5116	
2.51007	
2.51007	
2.51465	
2.51465	
2.5116	
2.5116	
2.51617	
2.51617	
2.5116	
2.51007	
2.51465	
2.5177	
2.5116	
2.51465	
2.51312	
2.5177	
2.51312	
2.51617	
2.51465	
2.51312	
2.51312	
2.5116	
2.51007	
2.50549	
2.51617	
2.5116	
2.5177	
2.51007	
2.51312	
2.51007	
2.51007	
2.50397	
2.50092	
2.50397	
2.50549	
2.50244	
2.50092	
2.50854	
2.49939	
2.49939	
2.49939	
2.50549	
2.50549	
2.50244	
2.50854	
2.49939	
2.50854	
2.50854	
2.5116	
2.50244	
2.50397	
2.50397	
2.50854	
2.50549	
2.50549	
2.50397	
2.51007	
2.50549	
2.50397	
2.50397	
2.50549	
2.50854	
2.50092	
2.50854	
2.51007	
2.51312	
2.50549	
2.51007	
2.50854	
2.50854	
2.51312	
2.51007	
2.50854	
2.50092	
2.5116	
2.50854	
2.51312	
2.51007	
2.51312	
2.51465	
2.51617	
2.51312	
2.51312	
2.51465	
2.51617	
2.51617	
2.51312	
2.51617	
2.5116	
2.5116	
2.50854	
2.51465	
2.51312	
2.51465	
2.51312	
2.50854	
2.51007	
2.51465	
2.51617	
2.51007	
2.5116	
2.50397	
2.5116	
2.50854	
2.5116	
2.50092	
2.50549	
2.50854	
2.50854	
2.50244	
2.50549	
2.51312	
2.50854	
2.51465	
2.51312	
2.5177	
2.51007	
2.5116	
2.5116	
2.5116	
2.51617	
2.5116	
2.5116	
2.5116	
2.51312	
2.5116	
2.51617	
2.51007	
2.51007	
2.51007	
2.5116	
2.51007	
2.51007	
2.50854	
2.51312	
2.51007	
2.50854	
2.5116	
2.50549	
2.50854	
2.50549	
2.51312	
2.50854	
2.50854	
2.5116	
2.50549	
2.51007	
2.51007	
2.50397	
2.50854	
2.5116	
2.51007	
2.5116	
2.51007	
2.50854	
2.51007	
2.51007	
2.51007	
2.51312	
2.50092	
2.50854	
2.51007	
2.50397	
2.50854	
2.50549	
2.51617	
2.50854	
2.51007	
2.50549	
2.51007	
2.5116	
2.51007	
2.51007	
2.51923	
2.51617	
2.51312	
2.51465	
2.51312	
2.51617	
2.5116	
2.51617	
2.51465	
2.51465	
2.51465	
2.52228	
2.51465	
2.5116	
2.51617	
2.51312	
2.5177	
2.5116	
2.51617	
2.51465	
2.5177	
2.51617	
2.51312	
2.51923	
2.51465	
2.50854	
2.5116	
2.51617	
2.51007	
2.51465	
2.51312	
2.51617	
2.5116	
2.5116	
2.51465	
2.51465	
2.50397	
2.51617	
2.51465	
2.5116	
2.51617	
2.5177	
2.51617	
2.5116	
2.51312	
2.5116	
2.5116	
2.51312	
2.51007	
2.5116	
2.51923	
2.51312	
2.50854	
2.51007	
2.50854	
2.51007	
2.50854	
2.50549	
2.51007	
2.5116	
2.51312	
2.52075	
2.51312	
2.51465	
2.51465	
2.51007	
2.5116	
2.50397	
2.5116	
2.51312	
2.5116	
2.5116	
2.50854	
2.51465	
2.51312	
2.50244	
2.51312	
2.51465	
2.50549	
2.5116	
2.50854	
2.51617	
2.51312	
2.51007	
2.51007	
2.51007	
2.49939	
2.51007	
2.5116	
2.50854	
2.5116	
2.51007	
2.5116	
2.50092	
2.50397	
2.50397	
2.50854	
2.51007	
2.50854	
2.5116	
2.51312	
2.5116	
2.50549	
2.51312	
2.51007	
2.5116	
2.50397	
2.5116	
2.50854	
2.51007	
2.5116	
2.52075	
2.51465	
2.51007	
2.5116	
2.50854	
2.51465	
2.51312	
2.51617	
2.51465	
2.51617	
2.51312	
2.5116	
2.5116	
2.5116	
2.50549	
2.51007	
2.5116	
2.50549	
2.5116	
2.51007	
2.50854	
2.50854	
2.5116	
2.51312	
2.51312	
2.50092	
2.50854	
2.51312	
2.51007	
2.51312	
2.51312	
2.5116	
2.50854	
2.51007	
2.50854	
2.51312	
2.50854	
2.50854	
2.51007	
2.51617	
2.5116	
2.5116	
2.51465	
2.51312	
2.51312	
2.51007	
2.51465	
2.51312	
2.51465	
2.51007	
2.52533	
2.51465	
2.5116	
2.51617	
2.51312	
2.5116	
2.51312	
2.5177	
2.5177	
2.51617	
2.51465	
2.51465	
2.5177	
2.51465	
2.5116	
2.51312	
2.5177	
2.51465	
2.51465	
2.51007	
2.51617	
2.51465	
2.51617	
2.5116	
2.51465	
2.50244	
2.51465	
2.51312	
2.51312	
2.51923	
2.51465	
2.5116	
2.51312	
2.5116	
2.5116	
2.51312	
2.51312	
2.51007	
2.51465	
2.51617	
2.51007	
2.51007	
2.5177	
2.51617	
2.51617	
2.5116	
2.5177	
2.51617	
2.51617	
2.5116	
2.52228	
2.51465	
2.51007	
2.51617	
2.51312	
2.51312	
2.51617	
2.51465	
2.5177	
2.5177	
2.51312	
2.5116	
2.51617	
2.51465	
2.51312	
2.51312	
2.5177	
2.51007	
2.51465	
2.51465	
2.51617	
2.51007	
2.51312	
2.50549	
2.51007	
2.50244	
2.51007	
2.51312	
2.50549	
2.51465	
2.51007	
2.51007	
2.50854	
2.50549	
2.50549	
2.5116	
2.5116	
2.50854	
2.5116	
2.51923	
2.51465	
2.5116	
2.5177	
2.5116	
2.51312	
2.5116	
2.51312	
2.51312	
2.51465	
2.5116	
2.52228	
2.51312	
2.5116	
2.51465	
2.5116	
2.51465	
2.5116	
2.5177	
2.51617	
2.5177	
2.51312	
2.52075	
2.51923	
2.52075	
2.51465	
2.5177	
2.51923	
2.51465	
2.51465	
2.51617	
2.5177	
2.51465	
2.51617	
2.51312	
2.51617	
2.50549	
2.5116	
2.51465	
2.5116	
2.5177	
2.51465	
2.51617	
2.51465	
2.5116	
2.5116	
2.51312	
2.5177	
2.5116	
2.51465	
2.5177	
2.51923	
2.51465	
2.5177	
2.5177	
2.5177	
2.51312	
2.51923	
2.51923	
2.52228	
2.51617	
2.5238	
2.51923	
2.5177	
2.52075	
2.5177	
2.52075	
2.51312	
2.51923	
2.52228	
2.52686	
2.5238	
2.52533	
2.52533	
2.52228	
2.52075	
2.52075	
2.5238	
2.5177	
2.5238	
2.52075	
2.52533	
2.5238	
2.52228	
2.51617	
2.52228	
2.5177	
2.51923	
2.5238	
2.51923	
2.5238	
2.52228	
2.52991	
2.52075	
2.51617	
2.51923	
2.5238	
2.52228	
2.5238	
2.52228	
2.52533	
2.52533	
2.5238	
2.52228	
2.52075	
2.52075	
2.51312	
2.52228	
2.51923	
2.52075	
2.51923	
2.52533	
2.52075	
2.51617	
2.51923	
2.51465	
2.5177	
2.50854	
2.5177	
2.51617	
2.51465	
2.51465	
2.51465	
2.5177	
2.51312	
2.5116	
2.51007	
2.51312	
2.51312	
2.51312	
2.51465	
2.51923	
2.51617	
2.51465	
2.51312	
2.51617	
2.51465	
2.51617	
2.51923	
2.51617	
2.51923	
2.52075	
2.5238	
2.52075	
2.5177	
2.51465	
2.5177	
2.51617	
2.51617	
2.51465	
2.51923	
2.51923	
2.5177	
2.51465	
2.5177	
2.5177	
2.51465	
2.51617	
2.51923	
2.5238	
2.51312	
2.5177	
2.5177	
2.51617	
2.5177	
2.51465	
2.51617	
2.5116	
2.51617	
2.51617	
2.5177	
2.51007	
2.5116	
2.51465	
2.51617	
2.51312	
2.51465	
2.51312	
2.51312	
2.51465	
2.51312	
2.5177	
2.51312	
2.51465	
2.50854	
2.51465	
2.5116	
2.51312	
2.51312	
2.51007	
2.5177	
2.51465	
2.51923	
2.51465	
2.51465	
2.51312	
2.5177	
2.51617	
2.5177	
2.5177	
2.51617	
2.51617	
2.51312	
2.51007	
2.51465	
2.5177	
2.51312	
2.51465	
2.51312	
2.51923	
2.51007	
2.5116	
2.51312	
2.51312	
2.5177	
2.51465	
2.51617	
2.51617	
2.51923	
2.51923	
2.51617	
2.51465	
2.51923	
2.5177	
2.51617	
2.51465	
2.51465	
2.51465	
2.51923	
2.5116	
2.51007	
2.50854	
2.50549	
2.50854	
2.50397	
2.51312	
2.51312	
2.51007	
2.51007	
2.50244	
2.51312	
2.51312	
2.51465	
2.5116	
2.51312	
2.51312	
2.5116	
2.51007	
2.5116	
2.51007	
2.5116	
2.50549	
2.50854	
2.50397	
2.50549	
2.5116	
2.50549	
2.5116	
2.50854	
2.5116	
2.50854	
2.51465	
2.51007	
2.5116	
2.5116	
2.50549	
2.50854	
2.51312	
2.51312	
2.51312	
2.51007	
2.51007	
2.5116	
2.5116	
2.5116	
2.50854	
2.51007	
2.50854	
2.51465	
2.51007	
2.50854	
2.51465	
2.50549	
2.51007	
2.50244	
2.5116	
2.50854	
2.50854	
2.50549	
2.50397	
2.50854	
2.50854	
2.50244	
2.50854	
2.50854	
2.50854	
2.51007	
2.51007	
2.50549	
2.50244	
2.51007	
2.50854	
2.50397	
2.49939	
2.50397	
2.50854	
2.50244	
2.50397	
2.50244	
2.50854	
2.50092	
2.50397	
2.50397	
2.50549	
2.51007	
2.50397	
2.50549	
2.51465	
2.51465	
2.50549	
2.5116	
2.51007	
2.50854	
2.50549	
2.50854	
2.50549	
2.50549	
2.50092	
2.51312	
2.50397	
2.49939	
2.50549	
2.49786	
2.49634	
2.49786	
2.50244	
2.49786	
2.50092	
2.49634	
2.49634	
2.49786	
2.49786	
2.49023	
2.49786	
2.49939	
2.49786	
2.50244	
2.49634	
2.50244	
2.49786	
2.50092	
2.50244	
2.50244	
2.49634	
2.50397	
2.50244	
2.50244	
2.50397	
2.50397	
2.50854	
2.50092	
2.50397	
2.50092	
2.50244	
2.50854	
2.50244	
2.50854	
2.51312	
2.51007	
2.50244	
2.50854	
2.50854	
2.50549	
2.50244	
2.50549	
2.50549	
2.50549	
2.50397	
2.51617	
2.5116	
2.50854	
2.50854	
2.50549	
2.50397	
2.50854	
2.50854	
2.50549	
2.51007	
2.51007	
2.50854	
2.51007	
2.51007	
2.49939	
2.50397	
2.51007	
2.50244	
2.51007	
2.50549	
2.51007	
2.50397	
2.50854	
2.51312	
2.51007	
2.50092	
2.5116	
2.5116	
2.50549	
2.5116	
2.51007	
2.51312	
2.50397	
2.51007	
2.50549	
2.5116	
2.51007	
2.50549	
2.50854	
2.5116	
2.51007	
2.50549	
2.5116	
2.50549	
2.51007	
2.5116	
2.51007	
2.50397	
2.51007	
2.50549	
2.5177	
2.50549	
2.50854	
2.5116	
2.51007	
2.51007	
2.51007	
2.5116	
2.51007	
2.51312	
2.50549	
2.51007	
2.5116	
2.50854	
2.50244	
2.50854	
2.5116	
2.50549	
2.51007	
2.50549	
2.51312	
2.50854	
2.5116	
2.5116	
2.50854	
2.49786	
2.51007	
2.51312	
2.50854	
2.5116	
2.50854	
2.50854	
2.50549	
2.50549	
2.50549	
2.51312	
2.5116	
2.50397	
2.51007	
2.5116	
2.50854	
2.50854	
2.50854	
2.50549	
2.50549	
2.50244	
2.50549	
2.50549	
2.50854	
2.50549	
2.5177	
2.51007	
2.50549	
2.50854	
2.50397	
2.50549	
2.5116	
2.5116	
2.5116	
2.5116	
2.51007	
2.5116	
2.51007	
2.51007	
2.50549	
2.50397	
2.51007	
2.50244	
2.51007	
2.5116	
2.51312	
2.5116	
2.51312	
2.5116	
2.51465	
2.50092	
2.5116	
2.5116	
2.51007	
2.51465	
2.51465	
2.5116	
2.5116	
2.5116	
2.51007	
2.51617	
2.51465	
2.50854	
2.51007	
2.51465	
2.51465	
2.51007	
2.51312	
2.5116	
2.51312	
2.50854	
2.5116	
2.51007	
2.51465	
2.50854	
2.5238	
2.51007	
2.51007	
2.51465	
2.50854	
2.50854	
2.51312	
2.51465	
2.51617	
2.51312	
2.51312	
2.51007	
2.51465	
2.51465	
2.50549	
2.5116	
2.51465	
2.50549	
2.51007	
2.5116	
2.5177	
2.5116	
2.51007	
2.50549	
2.51007	
2.49939	
2.51007	
2.50549	
2.50244	
2.5116	
2.50549	
2.50549	
2.50244	
2.50244	
2.50092	
2.50549	
2.49939	
2.50092	
2.50092	
2.50244	
2.50092	
2.50092	
2.50244	
2.49786	
2.50244	
2.49481	
2.50092	
2.49786	
2.50549	
2.50092	
2.5116	
2.50092	
2.49786	
2.50244	
2.49939	
2.50092	
2.49786	
2.50244	
2.50397	
2.50244	
2.50092	
2.49939	
2.50397	
2.50092	
2.49634	
2.49786	
2.50244	
2.49939	
2.50244	
2.49939	
2.49939	
2.49786	
2.49939	
2.49481	
2.49939	
2.49634	
2.49939	
2.50397	
2.49786	
2.50549	
2.50244	
2.50244	
2.50244	
2.50244	
2.49786	
2.50397	
2.50092	
2.49939	
2.50092	
2.50397	
2.50397	
2.50092	
2.49786	
2.49786	
2.50092	
2.49786	
2.50244	
2.49939	
2.50397	
2.49634	
2.50397	
2.49786	
2.49634	
2.50397	
2.49634	
2.49634	
2.49481	
2.49939	
2.49939	
2.50244	
2.49786	
2.49634	
2.49939	
2.49939	
2.49481	
2.49329	
2.49939	
2.49481	
2.49634	
2.49634	
2.49939	
2.49786	
2.49939	
2.49329	
2.49786	
2.49481	
2.49481	
2.49786	
2.49329	
2.49634	
2.49481	
2.49634	
2.49023	
2.49176	
2.48871	
2.49481	
2.49634	
2.49329	
2.49481	
2.49786	
2.49786	
2.49634	
2.49481	
2.49481	
2.49786	
2.49176	
2.49786	
2.49634	
2.50244	
2.49939	
2.50092	
2.49939	
2.49634	
2.50397	
2.49634	
2.49939	
2.49176	
2.50244	
2.50092	
2.50244	
2.49939	
2.49939	
2.49939	
2.49786	
2.49481	
2.49939	
2.50397	
2.50244	
2.50092	
2.50092	
2.50397	
2.49939	
2.50244	
2.49634	
2.50244	
2.49939	
2.50092	
2.50092	
2.50244	
2.50549	
2.50244	
2.51007	
2.50092	
2.49939	
2.49939	
2.50244	
2.49939	
2.49786	
2.49634	
2.50092	
2.49786	
2.49939	
2.50092	
2.49939	
2.50244	
2.49786	
2.49786	
2.49939	
2.50244	
2.49786	
2.49939	
2.49634	
2.49786	
2.50092	
2.49939	
2.49634	
2.49481	
2.50397	
2.50397	
2.50244	
2.50244	
2.49939	
2.50244	
2.50244	
2.49634	
2.49786	
2.49939	
2.50244	
2.49939	
2.50092	
2.50244	
2.50092	
2.50092	
2.49786	
2.49939	
2.49786	
2.49786	
2.49176	
2.49634	
2.49786	
2.50092	
2.50549	
2.49786	
2.49634	
2.49786	
2.49939	
2.49939	
2.49939	
2.49786	
2.50092	
2.50397	
2.50244	
2.49634	
2.50092	
2.50549	
2.49634	
2.50244	
2.50244	
2.50549	
2.50092	
2.50244	
2.49939	
2.50092	
2.50549	
2.49939	
2.50244	
2.50092	
2.49939	
2.50244	
2.50244	
2.50244	
2.50244	
2.50397	
2.50244	
2.50092	
2.50092	
2.50092	
2.50854	
2.50244	
2.50397	
2.51007	
2.50092	
2.50549	
2.50244	
2.51465	
2.50854	
2.5116	
2.50854	
2.50854	
2.5116	
2.50854	
2.5116	
2.50397	
2.50397	
2.50244	
2.50397	
2.50549	
2.50092	
2.50244	
2.50244	
2.50244	
2.50244	
2.49634	
2.50397	
2.50549	
2.50092	
2.50854	
2.50549	
2.51007	
2.50397	
2.50549	
2.50092	
2.50397	
2.51007	
2.50244	
2.50244	
2.50854	
2.50854	
2.50244	
2.50397	
2.50092	
2.50244	
2.50397	
2.50549	
2.50244	
2.50092	
2.49939	
2.51007	
2.50092	
2.50397	
2.50854	
2.50397	
2.50549	
2.49786	
2.50549	
2.50244	
2.50854	
2.50244	
2.49939	
2.50397	
2.50244	
2.49329	
2.49786	
2.50092	
2.49329	
2.50397	
2.49939	
2.50244	
2.50244	
2.49939	
2.50549	
2.50549	
2.49481	
2.50397	
2.50244	
2.50244	
2.50549	
2.50244	
2.50244	
2.49939	
2.50244	
2.49634	
2.50549	
2.50397	
2.50092	
2.50397	
2.51007	
2.50092	
2.49634	
2.50549	
2.50092	
2.50549	
2.50244	
2.5116	
2.50549	
2.50854	
2.50397	
2.51465	
2.50549	
2.50854	
2.50854	
2.50244	
2.50549	
2.50244	
2.51007	
2.50549	
2.50549	
2.50549	
2.50549	
2.51007	
2.50854	
2.49786	
2.50397	
2.50854	
2.50549	
2.51007	
2.50549	
2.5116	
2.50549	
2.50397	
2.50854	
2.50854	
2.49786	
2.51007	
2.50854	
2.50397	
2.5116	
2.50854	
2.50854	
2.50244	
2.50397	
2.50397	
2.51007	
2.5116	
2.50854	
2.50244	
2.50854	
2.50549	
2.50092	
2.50549	
2.50397	
2.50854	
2.50549	
2.51007	
2.5116	
2.51007	
2.50244	
2.51617	
2.51007	
2.50397	
2.50854	
2.50549	
2.50854	
2.51007	
2.51312	
2.51312	
2.51312	
2.50549	
2.50854	
2.50854	
2.50549	
2.50244	
2.50244	
2.50854	
2.50549	
2.50854	
2.50397	
2.50854	
2.50854	
2.5116	
2.51007	
2.5116	
2.49786	
2.50854	
2.50854	
2.50397	
2.50397	
2.51007	
2.51007	
2.50244	
2.50244	
2.50397	
2.5116	
2.51007	
2.50549	
2.50854	
2.51617	
2.5116	
2.50854	
2.51617	
2.5116	
2.5116	
2.51007	
2.5116	
2.50854	
2.51007	
2.5116	
2.5238	
2.51465	
2.51465	
2.51617	
2.5116	
2.51465	
2.51617	
2.51617	
2.51312	
2.51617	
2.5116	
2.51465	
2.51465	
2.51465	
2.51007	
2.51312	
2.51465	
2.5116	
2.51465	
2.51312	
2.5177	
2.51923	
2.5177	
2.51465	
2.51617	
2.50549	
2.51617	
2.5177	
2.51465	
2.51617	
2.5177	
2.51465	
2.51465	
2.51465	
2.51465	
2.51465	
2.5177	
2.51465	
2.51617	
2.52075	
2.52075	
2.5177	
2.52533	
2.52075	
2.51923	
2.51312	
2.52228	
2.5177	
2.5177	
2.51617	
2.52533	
2.51465	
2.51465	
2.5177	
2.5116	
2.51465	
2.51617	
2.5177	
2.5177	
2.51617	
2.51465	
2.5116	
2.5116	
2.51007	
2.50549	
2.5116	
2.50854	
2.50092	
2.50549	
2.50397	
2.5116	
2.50854	
2.50549	
2.50549	
2.5116	
2.49786	
2.50854	
2.50854	
2.50854	
2.51312	
2.51007	
2.50397	
2.50549	
2.50397	
2.50397	
2.51007	
2.50549	
2.50244	
2.50549	
2.5116	
2.50854	
2.50549	
2.5116	
2.50549	
2.51007	
2.50549	
2.51007	
2.51007	
2.50549	
2.51007	
2.51923	
2.50854	
2.50854	
2.51312	
2.50092	
2.50549	
2.50854	
2.51007	
2.51312	
2.51465	
2.50549	
2.50397	
2.51312	
2.50854	
2.50549	
2.50854	
2.51007	
2.50397	
2.50854	
2.50854	
2.51007	
2.50397	
2.5116	
2.50092	
2.50549	
2.49786	
2.50244	
2.50549	
2.50244	
2.51312	
2.5116	
2.50549	
2.50244	
2.50092	
2.50244	
2.51007	
2.50549	
2.50092	
2.50244	
2.5116	
2.50854	
2.50854	
2.51465	
2.50854	
2.5116	
2.50092	
2.50549	
2.50397	
2.51312	
2.51007	
2.51312	
2.50854	
2.50397	
2.50549	
2.50244	
2.50397	
2.50092	
2.50549	
2.51007	
2.50854	
2.50092	
2.50244	
2.50549	
2.50244	
2.50244	
2.50092	
2.50549	
2.50397	
2.50244	
2.50397	
2.50854	
2.50397	
2.50397	
2.50244	
2.50549	
2.50092	
2.50549	
2.50397	
2.49939	
2.50397	
2.50397	
2.50549	
2.50549	
2.50244	
2.50244	
2.5116	
2.51007	
2.50244	
2.50854	
2.5116	
2.51007	
2.50854	
2.51007	
2.50549	
2.50397	
2.50397	
2.50549	
2.50397	
2.51465	
2.50854	
2.5116	
2.51007	
2.51007	
2.5116	
2.50397	
2.50549	
2.50092	
2.51007	
2.50549	
2.51007	
2.50854	
2.5116	
2.5116	
2.50854	
2.50397	
2.50397	
2.50854	
2.51007	
2.51007	
2.50549	
2.51465	
2.50854	
2.5116	
2.50397	
2.5116	
2.50397	
2.50854	
2.51007	
2.50092	
2.50549	
2.50549	
2.5116	
2.50397	
2.50092	
2.50244	
2.51007	
2.50549	
2.50549	
2.51007	
2.51007	
2.51007	
2.51007	
2.50549	
2.50397	
2.50854	
2.50244	
2.50549	
2.50244	
2.51007	
2.50244	
2.50549	
2.50244	
2.50397	
2.51007	
2.50397	
2.50397	
2.49939	
2.51007	
2.51312	
2.51465	
2.5116	
2.51007	
2.51007	
2.50549	
2.50397	
2.5116	
2.51007	
2.5116	
2.51007	
2.51007	
2.51465	
2.5116	
2.5116	
2.50854	
2.51312	
2.5116	
2.51465	
2.5116	
2.50854	
2.51617	
2.51465	
2.51923	
2.51312	
2.51007	
2.51007	
2.5116	
2.51007	
2.5116	
2.51007	
2.51007	
2.51312	
2.51007	
2.5116	
2.51312	
2.51465	
2.5116	
2.51465	
2.51312	
2.52075	
2.51312	
2.5177	
2.51312	
2.51312	
2.52075	
2.5116	
2.51312	
2.51007	
2.51617	
2.5177	
2.51923	
2.5177	
2.5177	
2.51465	
2.51465	
2.5177	
2.51617	
2.51923	
2.5177	
2.5177	
2.51617	
2.51923	
2.5177	
2.51923	
2.51465	
2.52228	
2.51923	
2.52075	
2.51617	
2.51617	
2.52075	
2.52228	
2.5238	
2.5177	
2.51923	
2.5177	
2.52075	
2.5177	
2.52075	
2.5177	
2.52075	
2.5238	
2.52075	
2.51465	
2.52075	
2.52075	
2.51617	
2.5238	
2.51923	
2.52533	
2.51617	
2.51923	
2.51923	
2.52075	
2.52686	
2.52075	
2.52075	
2.51923	
2.5238	
2.52228	
2.52533	
2.52228	
2.5238	
2.52228	
2.5238	
2.52686	
2.52228	
2.52686	
2.53296	
2.5238	
2.5238	
2.52838	
2.52533	
2.52533	
2.52228	
2.52838	
2.52533	
2.52686	
2.52228	
2.52228	
2.52686	
2.5238	
2.52228	
2.52228	
2.52533	
2.52075	
2.5238	
2.52075	
2.5238	
2.52533	
2.5238	
2.52686	
2.52533	
2.51465	
2.52075	
2.52533	
2.51923	
2.52228	
2.52533	
2.52991	
2.52075	
2.52533	
2.52228	
2.52533	
2.52991	
2.5238	
2.52838	
2.53143	
2.53143	
2.52686	
2.52838	
2.5238	
2.52991	
2.5238	
2.52533	
2.52533	
2.52533	
2.52228	
2.53448	
2.52228	
2.52075	
2.52838	
2.52075	
2.52228	
2.51923	
2.5238	
2.52228	
2.5238	
2.5177	
2.51617	
2.5177	
2.5177	
2.50397	
2.51007	
2.51617	
2.5116	
2.51312	
2.51465	
2.51465	
2.51617	
2.5177	
2.5177	
2.51923	
2.50549	
2.51617	
2.51923	
2.5116	
2.51465	
2.51465	
2.52228	
2.5116	
2.51617	
2.51312	
2.52075	
2.51923	
2.51465	
2.51923	
2.52533	
2.52228	
2.51923	
2.5238	
2.52075	
2.52075	
2.52075	
2.52533	
2.51923	
2.5238	
2.52075	
2.53143	
2.52686	
2.52228	
2.52686	
2.52075	
2.52228	
2.52228	
2.52686	
2.5238	
2.52533	
2.52533	
2.52533	
2.5238	
2.5238	
2.5177	
2.52075	
2.52838	
2.52228	
2.52838	
2.52533	
2.52533	
2.5238	
2.52228	
2.5238	
2.52991	
2.5177	
2.52533	
2.53143	
2.52533	
2.52838	
2.52991	
2.52991	
2.52533	
2.52838	
2.5238	
2.52838	
2.52686	
2.52533	
2.52533	
2.53296	
2.52686	
2.5238	
2.52838	
2.52686	
2.53296	
2.52533	
2.52838	
2.52838	
2.52838	
2.52533	
2.53601	
2.52991	
2.52686	
2.52838	
2.52686	
2.53143	
2.52838	
2.53296	
2.52991	
2.53601	
2.52991	
2.52991	
2.52991	
2.53143	
2.52533	
2.52686	
2.53296	
2.52838	
2.53143	
2.53296	
2.52991	
2.52991	
2.53296	
2.53448	
2.53448	
2.52075	
2.53143	
2.53601	
2.52991	
2.53601	
2.53448	
2.53296	
2.53143	
2.53143	
2.53143	
2.53296	
2.52991	
2.52838	
2.53143	
2.52991	
2.53296	
2.52533	
2.53143	
2.52838	
2.53448	
2.52686	
2.53143	
2.52838	
2.52838	
2.52686	
2.54059	
2.52838	
2.52991	
2.53143	
2.53143	
2.53296	
2.53448	
2.53143	
2.53448	
2.53296	
2.53296	
2.52991	
2.53448	
2.53143	
2.52686	
2.52838	
2.52991	
2.52838	
2.52991	
2.53143	
2.53296	
2.52991	
2.53448	
2.52686	
2.53448	
2.52228	
2.53143	
2.53601	
2.52838	
2.53754	
2.53448	
2.53754	
2.53296	
2.53448	
2.53448	
2.53448	
2.53448	
2.52991	
2.53296	
2.53754	
2.54059	
2.53601	
2.54211	
2.53754	
2.53754	
2.53296	
2.53448	
2.53601	
2.53754	
2.53296	
2.54669	
2.53601	
2.53754	
2.53754	
2.53296	
2.53448	
2.53601	
2.53754	
2.54059	
2.53601	
2.53601	
2.53601	
2.54059	
2.53601	
2.52991	
2.53143	
2.53601	
2.53143	
2.53601	
2.53143	
2.53754	
2.53296	
2.53448	
2.52991	
2.53601	
2.52838	
2.53143	
2.53296	
2.52991	
2.53754	
2.53143	
2.53296	
2.52686	
2.52838	
2.52838	
2.53296	
2.53143	
2.53143	
2.53143	
2.53601	
2.53601	
2.53143	
2.53754	
2.53601	
2.53143	
2.53143	
2.53448	
2.53296	
2.53448	
2.52991	
2.54059	
2.52991	
2.53296	
2.53601	
2.52686	
2.53296	
2.53296	
2.52991	
2.53601	
2.53754	
2.53143	
2.53296	
2.53601	
2.54211	
2.53143	
2.53296	
2.53601	
2.53143	
2.53754	
2.53296	
2.54211	
2.53448	
2.53296	
2.53296	
2.53754	
2.5238	
2.53296	
2.53448	
2.52838	
2.53601	
2.52991	
2.53143	
2.52838	
2.52838	
2.52991	
2.53296	
2.52838	
2.52838	
2.53296	
2.53448	
2.53296	
2.53143	
2.53143	
2.52838	
2.53296	
2.52533	
2.53296	
2.52991	
2.53754	
2.53143	
2.53601	
2.53143	
2.52991	
2.53601	
2.52838	
2.52991	
2.52838	
2.52991	
2.53448	
2.53296	
2.52838	
2.53143	
2.53448	
2.52991	
2.52838	
2.52686	
2.53143	
2.52686	
2.52686	
2.52533	
2.52838	
2.52838	
2.52533	
2.52533	
2.52991	
2.52533	
2.52991	
2.52533	
2.52533	
2.52991	
2.52838	
2.53143	
2.52686	
2.5238	
2.52533	
2.52838	
2.52838	
2.52533	
2.52686	
2.52991	
2.52991	
2.52686	
2.52991	
2.52991	
2.53143	
2.52686	
2.53448	
2.53296	
2.53448	
2.52991	
2.53448	
2.53143	
2.53143	
2.52991	
2.53143	
2.52838	
2.52228	
2.52838	
2.52533	
2.53143	
2.52228	
2.52533	
2.52228	
2.52228	
2.52075	
2.52075	
2.52228	
2.52228	
2.52228	
2.52228	
2.5238	
2.51923	
2.52228	
2.51617	
2.52228	
2.52075	
2.51923	
2.52228	
2.5177	
2.52228	
2.52533	
2.52838	
2.52228	
2.52075	
2.51923	
2.5238	
2.52533	
2.5238	
2.52686	
2.52838	
2.52838	
2.52533	
2.5238	
2.52686	
2.52838	
2.5238	
2.52838	
2.52228	
2.52838	
2.52075	
2.52686	
2.52686	
2.52533	
2.53143	
2.52533	
2.5238	
2.52075	
2.52838	
2.52991	
2.53143	
2.52991	
2.52991	
2.52838	
2.52838	
2.52533	
2.52686	
2.52991	
2.53143	
2.53296	
2.53143	
2.53601	
2.53143	
2.52991	
2.52533	
2.53143	
2.52991	
2.52991	
2.52838	
2.52686	
2.52991	
2.53143	
2.53601	
2.52991	
2.52838	
2.52533	
2.52838	
2.52991	
2.52533	
2.52686	
2.53143	
2.53296	
2.53143	
2.52533	
2.52838	
2.52838	
2.52228	
2.52838	
2.52686	
2.52838	
2.52838	
2.52686	
2.53143	
2.52838	
2.53754	
2.52991	
2.52991	
2.52686	
2.53296	
2.53448	
2.53601	
2.53296	
2.53296	
2.53143	
2.53448	
2.53296	
2.52991	
2.53143	
2.53448	
2.53296	
2.53143	
2.53754	
2.53448	
2.53448	
2.52991	
2.54059	
2.53143	
2.53296	
2.53448	
2.53143	
2.53296	
2.53448	
2.53601	
2.52838	
2.52991	
2.52838	
2.53296	
2.53143	
2.53296	
2.53296	
2.53143	
2.52838	
2.53143	
2.52533	
2.52838	
2.53143	
2.52533	
2.53448	
2.53143	
2.53601	
2.52533	
2.53754	
2.53143	
2.53448	
2.53448	
2.53448	
2.53448	
2.53143	
2.53296	
2.52991	
2.53296	
2.53296	
2.53296	
2.52991	
2.53296	
2.53448	
2.53448	
2.53296	
2.54211	
2.54059	
2.53448	
2.54517	
2.54211	
2.54517	
2.53754	
2.54517	
2.54059	
2.54364	
2.54517	
2.54211	
2.54059	
2.53754	
2.54211	
2.54364	
2.54669	
2.54517	
2.54669	
2.54211	
2.54822	
2.54211	
2.54517	
2.54669	
2.54364	
2.53754	
2.54364	
2.54669	
2.54059	
2.54517	
2.54364	
2.55127	
2.54517	
2.54669	
2.54211	
2.54517	
2.54822	
2.53754	
2.54364	
2.54822	
2.54669	
2.54364	
2.54822	
2.54517	
2.54669	
2.54517	
2.5528	
2.54822	
2.54822	
2.54822	
2.55585	
2.54974	
2.54822	
2.55432	
2.54822	
2.55127	
2.54517	
2.5528	
2.55127	
2.55432	
2.5528	
2.54822	
2.55585	
2.55127	
2.54364	
2.54974	
2.55585	
2.54974	
2.5528	
2.54822	
2.5528	
2.5528	
2.55432	
2.55585	
2.55585	
2.54822	
2.55432	
2.5589	
2.5528	
2.5589	
2.55127	
2.5589	
2.54974	
2.5528	
2.55127	
2.55432	
2.55585	
2.55127	
2.55432	
2.56348	
2.55585	
2.55432	
2.55585	
2.5528	
2.5589	
2.5528	
2.55737	
2.55432	
2.55127	
2.5528	
2.56348	
2.5528	
2.55127	
2.55737	
2.55127	
2.5528	
2.55127	
2.55585	
2.55737	
2.5589	
2.55432	
2.55432	
2.55737	
2.55432	
2.54822	
2.55432	
2.55737	
2.55432	
2.55432	
2.55585	
2.55585	
2.55127	
2.5528	
2.55432	
2.55585	
2.54669	
2.55432	
2.55432	
2.5528	
2.5589	
2.55432	
2.55737	
2.55585	
2.55585	
2.55585	
2.55737	
2.55737	
2.5528	
2.55432	
2.5589	
2.55432	
2.54669	
2.55432	
2.5528	
2.5528	
2.54974	
2.5528	
2.54974	
2.5528	
2.5528	
2.565	
2.55432	
2.55432	
2.55585	
2.5528	
2.55432	
2.55585	
2.55585	
2.5528	
2.55432	
2.5528	
2.55127	
2.55127	
2.55127	
2.54822	
2.54822	
2.55585	
2.54822	
2.55737	
2.55127	
2.55585	
2.54974	
2.5528	
2.5528	
2.55432	
2.54364	
2.55127	
2.55432	
2.54974	
2.5528	
2.55432	
2.55127	
2.5528	
2.55127	
2.54669	
2.55432	
2.54974	
2.54974	
2.55432	
2.55585	
2.55432	
2.55127	
2.56042	
2.5528	
2.56042	
2.5528	
2.55737	
2.55585	
2.55432	
2.55737	
2.57263	
2.5589	
2.55737	
2.5589	
2.55585	
2.55737	
2.55737	
2.5589	
2.56195	
2.56042	
2.5589	
2.56348	
2.56042	
2.55737	
2.55432	
2.55737	
2.56195	
2.55585	
2.55737	
2.56042	
2.5589	
2.55585	
2.5589	
2.5589	
2.55737	
2.54822	
2.55737	
2.56348	
2.5589	
2.56042	
2.55737	
2.55585	
2.55585	
2.5528	
2.55432	
2.55585	
2.55737	
2.55432	
2.55127	
2.55737	
2.55432	
2.55585	
2.55585	
2.55585	
2.55737	
2.55127	
2.55432	
2.5528	
2.55432	
2.55585	
2.56805	
2.55585	
2.55585	
2.56042	
2.5528	
2.5589	
2.5589	
2.56042	
2.56195	
2.5589	
2.55737	
2.5589	
2.56348	
2.56348	
2.5589	
2.5589	
2.56042	
2.55737	
2.56042	
2.5589	
2.56348	
2.56042	
2.56042	
2.56042	
2.56348	
2.5528	
2.5589	
2.56653	
2.55737	
2.56653	
2.56195	
2.56042	
2.56195	
2.5589	
2.55737	
2.56195	
2.55737	
2.56348	
2.565	
2.56653	
2.56653	
2.56042	
2.565	
2.56348	
2.565	
2.5589	
2.56348	
2.56348	
2.56653	
2.56042	
2.56805	
2.56348	
2.565	
2.56805	
2.56042	
2.565	
2.56042	
2.565	
2.56805	
2.56805	
2.565	
2.565	
2.57263	
2.56653	
2.5589	
2.56042	
2.56348	
2.5589	
2.56042	
2.5589	
2.56195	
2.5589	
2.56195	
2.5589	
2.56348	
2.5528	
2.56042	
2.5589	
2.55737	
2.56348	
2.5589	
2.56042	
2.5589	
2.55737	
2.55585	
2.56348	
2.5589	
2.5528	
2.5589	
2.56348	
2.56348	
2.55585	
2.56042	
2.5589	
2.56042	
2.55585	
2.56348	
2.56042	
2.56805	
2.56348	
2.57111	
2.56195	
2.56195	
2.565	
2.5589	
2.56195	
2.55737	
2.56195	
2.56653	
2.56653	
2.56042	
2.56348	
2.565	
2.56042	
2.56042	
2.5589	
2.56042	
2.56042	
2.56042	
2.5589	
2.56042	
2.5589	
2.56195	
2.55127	
2.5589	
2.55585	
2.5589	
2.56042	
2.55585	
2.56042	
2.56195	
2.56195	
2.56042	
2.55737	
2.5589	
2.565	
2.56653	
2.56042	
2.56195	
2.56805	
2.57111	
2.56653	
2.56348	
2.56653	
2.565	
2.5589	
2.56348	
2.56195	
2.56653	
2.56195	
2.57111	
2.56348	
2.56653	
2.57111	
2.56348	
2.56653	
2.56042	
2.565	
2.56805	
2.56805	
2.56348	
2.56653	
2.56653	
2.56805	
2.56348	
2.56348	
2.56805	
2.56805	
2.56653	
2.57111	
2.57568	
2.56805	
2.56805	
2.56348	
2.57263	
2.56653	
2.56805	
2.56653	
2.56348	
2.57263	
2.56653	
2.57263	
2.565	
2.56042	
2.5589	
2.56348	
2.56348	
2.565	
2.56348	
2.56348	
2.565	
2.56805	
2.565	
2.565	
2.56653	
2.56348	
2.56653	
2.56653	
2.57263	
2.56348	
2.56653	
2.56653	
2.56653	
2.57111	
2.56653	
2.56805	
2.56195	
2.56653	
2.57111	
2.57416	
2.565	
2.57416	
2.57111	
2.56805	
2.56653	
2.56653	
2.56805	
2.56805	
2.56805	
2.56653	
2.57568	
2.57416	
2.57111	
2.56195	
2.57111	
2.565	
2.56805	
2.56805	
2.56653	
2.56805	
2.57111	
2.58026	
2.56653	
2.56348	
2.56195	
2.56653	
2.56653	
2.565	
2.565	
2.56653	
2.57263	
2.565	
2.56348	
2.56805	
2.57263	
2.56653	
2.57111	
2.565	
2.57568	
2.56805	
2.57263	
2.56805	
2.57111	
2.57263	
2.56805	
2.565	
2.565	
2.56653	
2.57111	
2.56653	
2.565	
2.56653	
2.56653	
2.56805	
2.56348	
2.56348	
2.56653	
2.56653	
2.565	
2.56348	
2.56653	
2.56195	
2.565	
2.5589	
2.56653	
2.56348	
2.56805	
2.56042	
2.56348	
2.565	
2.56195	
2.56653	
2.56195	
2.56042	
2.5589	
2.56195	
2.5589	
2.56042	
2.56042	
2.5589	
2.56195	
2.56042	
2.55585	
2.5589	
2.56195	
2.56195	
2.57111	
2.56653	
2.57263	
2.56042	
2.56195	
2.5589	
2.56042	
2.56042	
2.5589	
2.56195	
2.56195	
2.56348	
2.55737	
2.5589	
2.5589	
2.56042	
2.5589	
2.5589	
2.5589	
2.55737	
2.55737	
2.56805	
2.56042	
2.56195	
2.56653	
2.5589	
2.56042	
2.5589	
2.56348	
2.56042	
2.56195	
2.56348	
2.56042	
2.5589	
2.56195	
2.56195	
2.56042	
2.565	
2.56042	
2.56042	
2.56195	
2.56195	
2.56348	
2.565	
2.56805	
2.565	
2.55737	
2.56653	
2.56195	
2.56042	
2.565	
2.565	
2.57111	
2.56042	
2.56653	
2.56195	
2.56348	
2.56195	
2.56042	
2.56653	
2.57263	
2.56805	
2.56195	
2.56805	
2.56042	
2.565	
2.56348	
2.56195	
2.56195	
2.56348	
2.565	
2.57416	
2.56653	
2.56042	
2.57111	
2.56653	
2.56805	
2.565	
2.57263	
2.57111	
2.57416	
2.56805	
2.565	
2.57111	
2.56805	
2.56195	
2.56653	
2.57111	
2.565	
2.56805	
2.56653	
2.57111	
2.56348	
2.56653	
2.57111	
2.57111	
2.56042	
2.56805	
2.56805	
2.56348	
2.56805	
2.56805	
2.57416	
2.56805	
2.57111	
2.56348	
2.56805	
2.57111	
2.56653	
2.57111	
2.57721	
2.56805	
2.56805	
2.57263	
2.56348	
2.56653	
2.565	
2.57111	
2.56653	
2.565	
2.56653	
2.57721	
2.56653	
2.56805	
2.57111	
2.56653	
2.57416	
2.56653	
2.57263	
2.57111	
2.56805	
2.56348	
2.5589	
2.56653	
2.56348	
2.55737	
2.56348	
2.565	
2.56348	
2.56653	
2.565	
2.56805	
2.56653	
2.565	
2.565	
2.56805	
2.55432	
2.56195	
2.565	
2.5589	
2.56348	
2.56348	
2.56348	
2.55737	
2.5589	
2.55737	
2.56042	
2.56348	
2.5589	
2.56042	
2.565	
2.56348	
2.5589	
2.5589	
2.5589	
2.56042	
2.56042	
2.565	
2.56195	
2.56348	
2.56195	
2.57263	
2.56195	
2.56042	
2.565	
2.5589	
2.56195	
2.5589	
2.565	
2.565	
2.565	
2.565	
2.56042	
2.56348	
2.5589	
2.55432	
2.55585	
2.56195	
2.55585	
2.5589	
2.56195	
2.565	
2.56042	
2.56042	
2.55737	
2.5589	
2.54669	
2.5589	
2.55737	
2.55432	
2.5589	
2.55585	
2.56042	
2.55737	
2.55585	
2.55585	
2.56042	
2.565	
2.55737	
2.5589	
2.56195	
2.56195	
2.55432	
2.56195	
2.5589	
2.5589	
2.5589	
2.55737	
2.56042	
2.55737	
2.5589	
2.57111	
2.56042	
2.5589	
2.56348	
2.55737	
2.56195	
2.56195	
2.56348	
2.56195	
2.56653	
2.565	
2.56348	
2.56348	
2.565	
2.56042	
2.56195	
2.565	
2.56042	
2.56042	
2.56042	
2.56195	
2.5589	
2.56195	
2.56348	
2.5589	
2.55127	
2.56195	
2.56042	
2.55432	
2.56042	
2.56042	
2.56042	
2.55737	
2.55585	
2.5589	
2.56348	
2.565	
2.56195	
2.565	
2.57111	
2.57263	
2.565	
2.57416	
2.57111	
2.57111	
2.56805	
2.56805	
2.56348	
2.565	
2.56348	
2.57874	
2.565	
2.565	
2.56653	
2.56042	
2.56348	
2.56348	
2.565	
2.56348	
2.56348	
2.56042	
2.5589	
2.56348	
2.56195	
2.5589	
2.56195	
2.565	
2.56195	
2.56348	
2.56195	
2.56805	
2.56195	
2.56348	
2.56348	
2.56653	
2.55432	
2.56805	
2.565	
2.56653	
2.57111	
2.56653	
2.565	
2.56653	
2.56348	
2.565	
2.57111	
2.56805	
2.56042	
2.56805	
2.57263	
2.57263	
2.56805	
2.57721	
2.57111	
2.56805	
2.565	
2.57111	
2.56805	
2.57263	
2.56653	
2.57721	
2.56805	
2.57111	
2.57568	
2.565	
2.57263	
2.56653	
2.57263	
2.57263	
2.57416	
2.56805	
2.56805	
2.57416	
2.57416	
2.56805	
2.57111	
2.57416	
2.57111	
2.57568	
2.57416	
2.57874	
2.57568	
2.58026	
2.57416	
2.58026	
2.57111	
2.57874	
2.57874	
2.56805	
2.57721	
2.57416	
2.57568	
2.57263	
2.56653	
2.56805	
2.57416	
2.57111	
2.565	
2.57263	
2.57721	
2.57416	
2.57263	
2.57416	
2.57416	
2.57416	
2.56653	
2.57263	
2.56653	
2.57111	
2.56348	
2.57568	
2.56653	
2.565	
2.57111	
2.565	
2.56805	
2.565	
2.57263	
2.57416	
2.57568	
2.56805	
2.57111	
2.57111	
2.56805	
2.56195	
2.56195	
2.565	
2.56348	
2.56653	
2.56653	
2.57111	
2.56348	
2.565	
2.56042	
2.565	
2.56195	
2.56653	
2.56805	
2.56348	
2.56805	
2.565	
2.57111	
2.565	
2.56348	
2.565	
2.57111	
2.56348	
2.56348	
2.56653	
2.57263	
2.56805	
2.56805	
2.56805	
2.56653	
2.56653	
2.565	
2.57416	
2.57111	
2.57568	
2.57111	
2.57721	
2.57568	
2.57263	
2.58026	
2.57416	
2.57568	
2.57263	
2.57721	
2.57568	
2.57874	
2.57416	
2.57721	
2.57874	
2.57568	
2.57416	
2.57263	
2.57721	
2.57721	
2.57568	
2.57416	
2.57874	
2.57416	
2.57416	
2.57263	
2.57568	
2.56805	
2.57416	
2.57263	
2.57111	
2.57263	
2.57568	
2.57568	
2.56805	
2.57263	
2.56805	
2.57721	
2.57568	
2.57568	
2.57263	
2.57721	
2.58026	
2.57721	
2.57721	
2.57874	
2.57874	
2.57721	
2.57721	
2.58026	
2.58636	
2.58179	
2.58331	
2.58484	
2.58026	
2.58636	
2.57721	
2.58026	
2.57568	
2.58026	
2.58331	
2.58484	
2.58026	
2.58179	
2.58331	
2.58026	
2.58026	
2.58179	
2.58331	
2.58331	
2.58179	
2.58179	
2.58484	
2.57416	
2.58179	
2.57568	
2.57874	
2.57721	
2.57874	
2.57874	
2.57416	
2.57568	
2.57263	
2.57874	
2.57263	
2.57111	
2.56805	
2.57568	
2.57416	
2.57111	
2.56805	
2.57568	
2.57111	
2.57416	
2.57568	
2.57263	
2.57416	
2.56805	
2.57263	
2.57416	
2.57568	
2.57111	
2.57568	
2.57721	
2.57416	
2.57568	
2.57568	
2.57568	
2.56805	
2.57263	
2.58179	
2.57874	
2.57568	
2.57568	
2.57568	
2.57568	
2.57263	
2.56805	
2.57416	
2.57568	
2.57568	
2.56805	
2.57263	
2.56805	
2.57111	
2.56653	
2.57416	
2.56805	
2.57416	
2.57263	
2.56805	
2.57263	
2.57111	
2.57111	
2.565	
2.56653	
2.56805	
2.57263	
2.57111	
2.57416	
2.565	
2.57111	
2.57263	
2.56805	
2.56653	
2.57111	
2.56805	
2.56348	
2.56805	
2.56348	
2.565	
2.56042	
2.56195	
2.56805	
2.565	
2.57263	
2.56653	
2.56653	
2.56805	
2.57416	
2.57721	
2.57416	
2.57416	
2.57263	
2.56805	
2.57111	
2.56805	
2.56805	
2.57263	
2.57568	
2.57263	
2.57416	
2.57721	
2.57416	
2.57721	
2.565	
2.57721	
2.57111	
2.57416	
2.57263	
2.56348	
2.57263	
2.57721	
2.57568	
2.57263	
2.57568	
2.57111	
2.57874	
2.57111	
2.57721	
2.57568	
2.57416	
2.57416	
2.57416	
2.565	
2.57263	
2.57416	
2.565	
2.56805	
2.57111	
2.57721	
2.57111	
2.56653	
2.56653	
2.56653	
2.57416	
2.56653	
2.56805	
2.57416	
2.56805	
2.565	
2.57111	
2.56653	
2.57263	
2.57111	
2.56805	
2.56805	
2.57111	
2.57111	
2.57721	
2.57263	
2.57111	
2.57416	
2.57111	
2.56805	
2.565	
2.57416	
2.57263	
2.57568	
2.57568	
2.57263	
2.57721	
2.57111	
2.56653	
2.56653	
2.57263	
2.57263	
2.57263	
2.57111	
2.57263	
2.57263	
2.57111	
2.57568	
2.57568	
2.56653	
2.57111	
2.57111	
2.56805	
2.57111	
2.56805	
2.57721	
2.56348	
2.57111	
2.56653	
2.56805	
2.57111	
2.565	
2.57568	
2.57721	
2.57416	
2.565	
2.57416	
2.56805	
2.57263	
2.57416	
2.57568	
2.57416	
2.57263	
2.57416	
2.58179	
2.57416	
2.57416	
2.57568	
2.57263	
2.57416	
2.57263	
2.57874	
2.57874	
2.57416	
2.57721	
2.57568	
2.57721	
2.57568	
2.565	
2.57263	
2.57874	
2.57111	
2.57416	
2.57416	
2.57416	
2.56805	
2.56805	
2.56805	
2.57568	
2.56195	
2.57111	
2.57111	
2.56653	
2.56805	
2.57263	
2.57568	
2.57568	
2.57568	
2.57111	
2.57263	
2.57416	
2.57111	
2.57721	
2.58026	
2.57568	
2.57263	
2.57721	
2.57568	
2.57568	
2.57263	
2.57416	
2.57111	
2.57263	
2.565	
2.57874	
2.57111	
2.57111	
2.57416	
2.57111	
2.57263	
2.57111	
2.57263	
2.57416	
2.57263	
2.57111	
2.57111	
2.57721	
2.57568	
2.56805	
2.57263	
2.57874	
2.57416	
2.57721	
2.57263	
2.57874	
2.57416	
2.57721	
2.57874	
2.57874	
2.565	
2.58026	
2.58026	
2.57721	
2.58484	
2.58179	
2.58179	
2.58026	
2.58026	
2.57721	
2.58026	
2.58179	
2.57721	
2.58179	
2.58636	
2.58331	
2.58331	
2.58636	
2.58331	
2.58484	
2.58179	
2.58331	
2.58179	
2.58331	
2.58331	
2.59094	
2.58331	
2.58331	
2.58636	
2.57874	
2.58484	
2.58331	
2.58331	
2.58179	
2.58331	
2.58179	
2.58484	
2.58484	
2.58179	
2.57721	
2.58026	
2.58484	
2.57874	
2.58331	
2.58484	
2.58636	
2.58179	
2.58179	
2.58331	
2.58026	
2.57111	
2.58026	
2.58331	
2.58026	
2.58789	
2.58636	
2.58636	
2.58484	
2.58026	
2.58331	
2.58636	
2.58331	
2.58179	
2.58331	
2.59094	
2.58789	
2.58179	
2.58636	
2.58331	
2.58331	
2.57874	
2.58179	
2.58179	
2.58331	
2.58331	
2.59399	
2.58331	
2.58179	
2.58331	
2.57874	
2.58331	
2.58179	
2.58942	
2.58636	
2.58789	
2.58331	
2.58636	
2.58636	
2.58484	
2.58331	
2.58331	
2.58484	
2.58331	
2.58179	
2.58331	
2.58484	
2.57568	
2.58484	
2.58179	
2.58179	
2.57111	
2.58179	
2.58331	
2.57874	
2.58179	
2.57874	
2.57721	
2.57874	
2.57721	
2.57874	
2.58179	
2.58026	
2.57874	
2.58331	
2.58331	
2.58331	
2.58179	
2.58484	
2.58331	
2.58484	
2.58179	
2.58484	
2.58179	
2.58484	
2.58026	
2.59705	
2.58636	
2.58331	
2.58636	
2.58179	
2.58484	
2.58331	
2.58636	
2.58484	
2.58636	
2.58026	
2.58179	
2.58636	
2.58179	
2.58179	
2.58331	
2.58484	
2.58026	
2.58179	
2.58636	
2.58789	
2.58179	
2.58484	
2.58331	
2.58636	
2.57416	
2.58331	
2.58331	
2.58331	
2.58636	
2.58484	
2.58484	
2.58331	
2.58026	
2.58026	
2.58026	
2.58179	
2.57874	
2.58179	
2.58789	
2.58331	
2.58179	
2.58636	
2.58636	
2.58484	
2.57721	
2.58331	
2.57874	
2.58179	
2.58026	
2.58789	
2.58026	
2.57874	
2.58179	
2.57874	
2.57874	
2.57874	
2.58179	
2.58484	
2.58331	
2.58179	
2.58179	
2.58484	
2.58026	
2.57874	
2.58026	
2.57721	
2.57874	
2.58179	
2.57874	
2.58942	
2.57721	
2.58331	
2.58484	
2.58331	
2.57874	
2.58484	
2.58331	
2.58179	
2.58789	
2.58484	
2.58484	
2.58179	
2.58026	
2.58179	
2.58484	
2.58331	
2.57721	
2.58331	
2.58331	
2.58484	
2.58331	
2.58484	
2.58179	
2.58179	
2.57874	
2.58331	
2.58331	
2.58942	
2.58179	
2.58636	
2.58331	
2.58026	
2.58179	
2.57416	
2.58026	
2.57721	
2.58026	
2.58179	
2.58484	
2.57874	
2.58179	
2.58789	
2.58636	
2.57721	
2.57721	
2.58179	
2.58026	
2.58026	
2.58179	
2.58331	
2.57874	
2.58179	
2.57874	
2.58179	
2.57721	
2.58636	
2.58789	
2.58331	
2.58484	
2.58179	
2.58484	
2.57874	
2.57721	
2.57721	
2.58331	
2.58331	
2.58026	
2.58179	
2.58179	
2.58179	
2.58026	
2.58026	
2.58026	
2.57874	
2.57416	
2.57721	
2.58179	
2.58331	
2.57721	
2.58484	
2.58179	
2.58636	
2.58484	
2.57721	
2.57874	
2.57721	
2.58484	
2.58331	
2.58636	
2.58179	
2.58179	
2.58179	
2.58026	
2.58179	
2.58026	
2.58331	
2.58179	
2.58484	
2.57874	
2.58331	
2.58179	
2.58026	
2.57263	
2.58484	
2.57874	
2.58026	
2.58026	
2.58026	
2.58331	
2.58179	
2.58636	
2.57874	
2.57874	
2.58026	
2.58331	
2.58179	
2.58026	
2.57874	
2.58179	
2.58331	
2.58026	
2.58026	
2.58026	
2.58179	
2.57721	
2.58331	
2.58331	
2.58789	
2.58484	
2.58484	
2.58484	
2.58179	
2.58331	
2.58331	
2.58484	
2.57568	
2.58636	
2.58636	
2.58789	
2.58636	
2.58636	
2.58331	
2.58331	
2.58331	
2.58179	
2.58331	
2.58636	
2.58789	
2.58484	
2.58789	
2.58179	
2.58179	
2.57721	
2.58331	
2.57874	
2.57874	
2.58026	
2.57874	
2.58331	
2.58484	
2.58942	
2.57874	
2.58484	
2.57874	
2.58179	
2.58179	
2.58026	
2.58026	
2.58179	
2.58636	
2.58179	
2.57721	
2.58331	
2.58331	
2.57568	
2.58026	
2.58331	
2.58484	
2.57874	
2.58179	
2.58179	
2.57874	
2.58179	
2.57721	
2.58331	
2.57721	
2.58331	
2.58484	
2.58484	
2.58179	
2.58484	
2.58026	
2.58331	
2.58179	
2.58331	
2.58484	
2.59094	
2.58942	
2.58331	
2.58789	
2.58179	
2.58484	
2.58026	
2.58789	
2.58484	
2.58484	
2.58331	
2.58484	
2.58942	
2.58789	
2.58942	
2.58331	
2.58789	
2.58484	
2.58789	
2.58484	
2.58484	
2.58331	
2.58636	
2.58484	
2.58484	
2.58026	
2.58179	
2.58331	
2.58179	
2.58331	
2.58179	
2.58484	
2.58026	
2.58331	
2.58331	
2.58179	
2.58331	
2.58026	
2.58179	
2.57874	
2.58484	
2.58026	
2.58636	
2.58179	
2.58484	
2.58484	
2.58331	
2.58636	
2.58484	
2.58636	
2.59094	
2.58636	
2.58484	
2.58942	
2.58026	
2.58636	
2.58026	
2.58636	
2.58179	
2.58636	
2.58636	
2.58179	
2.58942	
2.58789	
2.58331	
2.58484	
2.58789	
2.58484	
2.58789	
2.58179	
2.58636	
2.58331	
2.58636	
2.58636	
2.58331	
2.57721	
2.58484	
2.58331	
2.58331	
2.58636	
2.58484	
2.58942	
2.58179	
2.58484	
2.58331	
2.58789	
2.58789	
2.58026	
2.58331	
2.58636	
2.58636	
2.58179	
2.58636	
2.58179	
2.58484	
2.58331	
2.58636	
2.58636	
2.58484	
2.58636	
2.59247	
2.58636	
2.58484	
2.58636	
2.58331	
2.58331	
2.58179	
2.58331	
2.58636	
2.58636	
2.58484	
2.58331	
2.58484	
2.58484	
2.57721	
2.58331	
2.58789	
2.58789	
2.58789	
2.58636	
2.58636	
2.58331	
2.58636	
2.58484	
2.58789	
2.57874	
2.58636	
2.58484	
2.58331	
2.58942	
2.58789	
2.59094	
2.58484	
2.58789	
2.58484	
2.58636	
2.59094	
2.58484	
2.58636	
2.59247	
2.58942	
2.58331	
2.59094	
2.58484	
2.58789	
2.58179	
2.58331	
2.58484	
2.58484	
2.58331	
2.59552	
2.58636	
2.58331	
2.58942	
2.58026	
2.58179	
2.58179	
2.58331	
2.58179	
2.58484	
2.58026	
2.58026	
2.58331	
2.58026	
2.57111	
2.57568	
2.58026	
2.57874	
2.58179	
2.58026	
2.58331	
2.57874	
2.58331	
2.58331	
2.57874	
2.57263	
2.58179	
2.57874	
2.57874	
2.58331	
2.58179	
2.58484	
2.58026	
2.58179	
2.58179	
2.58179	
2.58484	
2.58331	
2.58179	
2.58789	
2.58484	
2.58331	
2.58789	
2.58331	
2.58179	
2.58179	
2.58636	
2.58636	
2.59094	
2.58636	
2.59705	
2.58789	
2.58331	
2.58789	
2.58331	
2.58331	
2.58484	
2.58484	
2.58942	
2.59094	
2.58636	
2.58484	
2.58789	
2.58942	
2.58789	
2.58789	
2.59094	
2.58789	
2.58636	
2.58636	
2.58942	
2.58331	
2.58484	
2.58331	
2.58636	
2.57568	
2.58179	
2.58484	
2.58179	
2.58942	
2.58789	
2.58484	
2.58484	
2.58331	
2.58026	
2.58484	
2.58484	
2.58331	
2.58484	
2.58636	
2.58789	
2.58331	
2.58942	
2.58942	
2.58942	
2.58331	
2.58942	
2.58789	
2.58789	
2.58942	
2.59857	
2.58942	
2.58789	
2.58789	
2.58331	
2.58789	
2.58484	
2.58942	
2.58789	
2.58942	
2.58942	
2.58789	
2.59399	
2.59247	
2.59094	
2.59094	
2.59857	
2.59247	
2.59552	
2.59094	
2.59399	
2.58789	
2.59094	
2.58942	
2.58942	
2.57874	
2.58789	
2.59247	
2.58789	
2.59247	
2.59247	
2.59094	
2.58789	
2.58789	
2.58636	
2.58942	
2.58789	
2.58484	
2.59094	
2.59247	
2.58942	
2.58484	
2.59094	
2.58636	
2.58636	
2.58484	
2.59094	
2.58789	
2.58942	
2.58789	
2.60162	
2.58789	
2.58484	
2.58789	
2.58331	
2.58789	
2.58484	
2.58636	
2.58942	
2.58484	
2.58331	
2.58789	
2.58484	
2.58179	
2.58026	
2.57874	
2.58179	
2.57568	
2.58179	
2.58026	
2.58636	
2.58331	
2.58179	
2.58026	
2.58484	
2.57263	
2.58331	
2.58789	
2.58026	
2.58636	
2.58484	
2.58636	
2.58484	
2.58484	
2.58484	
2.58484	
2.58942	
2.58026	
2.58636	
2.58942	
2.59094	
2.58789	
2.59705	
2.58942	
2.59094	
2.58789	
2.59247	
2.58942	
2.59399	
2.58789	
2.60162	
2.59247	
2.59094	
2.59399	
2.58942	
2.59094	
2.58636	
2.59399	
2.59552	
2.60162	
2.59247	
2.59094	
2.59399	
2.59094	
2.58484	
2.58636	
2.58942	
2.58789	
2.59094	
2.58636	
2.58942	
2.58636	
2.58484	
2.58179	
2.58789	
2.57874	
2.59094	
2.59094	
2.58789	
2.59247	
2.58789	
2.58942	
2.58636	
2.58942	
2.58789	
2.59094	
2.58942	
2.58636	
2.58942	
2.59705	
2.59399	
2.58942	
2.59399	
2.58789	
2.58942	
2.58484	
2.59247	
2.59247	
2.59552	
2.59094	
2.59705	
2.58942	
2.58942	
2.59552	
2.58789	
2.59094	
2.58789	
2.59094	
2.59094	
2.59247	
2.58789	
2.59094	
2.58942	
2.58942	
2.58331	
2.58636	
2.58484	
2.58636	
2.58484	
2.58484	
2.58942	
2.58484	
2.58789	
2.57874	
2.58636	
2.57721	
2.58484	
2.58789	
2.58484	
2.58942	
2.58789	
2.58789	
2.58636	
2.58484	
2.58331	
2.58484	
2.58484	
2.58484	
2.58484	
2.58789	
2.58636	
2.58636	
2.58331	
2.58179	
2.58026	
2.58179	
2.58789	
2.58331	
2.59247	
2.58179	
2.58942	
2.58636	
2.58331	
2.58789	
2.58331	
2.58484	
2.58789	
2.59247	
2.59094	
2.59247	
2.58789	
2.58942	
2.58789	
2.58789	
2.58484	
2.58636	
2.58789	
2.58636	
2.58636	
2.58484	
2.59094	
2.58636	
2.59094	
2.58484	
2.58942	
2.58636	
2.58942	
2.59094	
2.58789	
2.59552	
2.59552	
2.59705	
2.59247	
2.59247	
2.59094	
2.59552	
2.58942	
2.59552	
2.59094	
2.59247	
2.59552	
2.59247	
2.59552	
2.59247	
2.59552	
2.59094	
2.59857	
2.59705	
2.60162	
2.59247	
2.60162	
2.59705	
2.59399	
2.59399	
2.59552	
2.59247	
2.58942	
2.59552	
2.59705	
2.59857	
2.59552	
2.59552	
2.59705	
2.59247	
2.59399	
2.59247	
2.59552	
2.59399	
2.59399	
2.59399	
2.59399	
2.59247	
2.59247	
2.59247	
2.59705	
2.59247	
2.59247	
2.59399	
2.58942	
2.59094	
2.58942	
2.59857	
2.59399	
2.59094	
2.59094	
2.59399	
2.59094	
2.58789	
2.58789	
2.59247	
2.59094	
2.59247	
2.58484	
2.58942	
2.59094	
2.58789	
2.59247	
2.58789	
2.59094	
2.58484	
2.58942	
2.58636	
2.58942	
2.59094	
2.58484	
2.58484	
2.58331	
2.58942	
2.59094	
2.59552	
2.59094	
2.59247	
2.59399	
2.59552	
2.59094	
2.59094	
2.58942	
2.59247	
2.59247	
2.58942	
2.59399	
2.58942	
2.58942	
2.58942	
2.59552	
2.59399	
2.59552	
2.59552	
2.59705	
2.59399	
2.59705	
2.59705	
2.59399	
2.59399	
2.59399	
2.59705	
2.59094	
2.59094	
2.59247	
2.59247	
2.59552	
2.59399	
2.58942	
2.59552	
2.59552	
2.58789	
2.59857	
2.59857	
2.59857	
2.59247	
2.59705	
2.59552	
2.59247	
2.59857	
2.59247	
2.59552	
2.59247	
2.60315	
2.59857	
2.60162	
2.59857	
2.59857	
2.60162	
2.60162	
2.59705	
2.59552	
2.59552	
2.59857	
2.59705	
2.59399	
2.59857	
2.59247	
2.59399	
2.58942	
2.59552	
2.59247	
2.59552	
2.59399	
2.59247	
2.59705	
2.59705	
2.60162	
2.59552	
2.60162	
2.59857	
2.59857	
2.59552	
2.59857	
2.59857	
2.59857	
2.60162	
2.59857	
2.59399	
2.59857	
2.59857	
2.59247	
2.59857	
2.59857	
2.60162	
2.59552	
2.60162	
2.59705	
2.59552	
2.60162	
2.60162	
2.59857	
2.59857	
2.60162	
2.59552	
2.59857	
2.59857	
2.60162	
2.59399	
2.59705	
2.59857	
2.59705	
2.59705	
2.60468	
2.59705	
2.59399	
2.60162	
2.59399	
2.59399	
2.58942	
2.59705	
2.59552	
2.59552	
2.59705	
2.59399	
2.59552	
2.59399	
2.59705	
2.59247	
2.59552	
2.59552	
2.59857	
2.59399	
2.59399	
2.59399	
2.59399	
2.59857	
2.59399	
2.58789	
2.59552	
2.59552	
2.58942	
2.59399	
2.59399	
2.59552	
2.59094	
2.59399	
2.59247	
2.59247	
2.59399	
2.58789	
2.58942	
2.59552	
2.59247	
2.58942	
2.59094	
2.59094	
2.59247	
2.58789	
2.59399	
2.59552	
2.59399	
2.59247	
2.60162	
2.59705	
2.59399	
2.60162	
2.59552	
2.59399	
2.59247	
2.59857	
2.59399	
2.59552	
2.59094	
2.58942	
2.59552	
2.59247	
2.58331	
2.58942	
2.59399	
2.59399	
2.58942	
2.59094	
2.59094	
2.59247	
2.59552	
2.59705	
2.59247	
2.58636	
2.59399	
2.59399	
2.58789	
2.59552	
2.59399	
2.59552	
2.59247	
2.59552	
2.59399	
2.59705	
2.59399	
2.59094	
2.59399	
2.60468	
2.59552	
2.59247	
2.59552	
2.59399	
2.59552	
2.59094	
2.59247	
2.59399	
2.59552	
2.59399	
2.6062	
2.59399	
2.59552	
2.59705	
2.59399	
2.59552	
2.59705	
2.60162	
2.59552	
2.59705	
2.59705	
2.59705	
2.6062	
2.60162	
2.59247	
2.59705	
2.60162	
2.59857	
2.59857	
2.59399	
2.59705	
2.59399	
2.59705	
2.59552	
2.59705	
2.58636	
2.59552	
2.59705	
2.59552	
2.59552	
2.59552	
2.59552	
2.59247	
2.59399	
2.59399	
2.59399	
2.59552	
2.59399	
2.59399	
2.60162	
2.59857	
2.59552	
2.59705	
2.59552	
2.59552	
2.59552	
2.59705	
2.59552	
2.59705	
2.59705	
2.60925	
2.60162	
2.59857	
2.60315	
2.59705	
2.60468	
2.59857	
2.60162	
2.59857	
2.60162	
2.59705	
2.59705	
2.60315	
2.60162	
2.59094	
2.59552	
2.60315	
2.59857	
2.59705	
2.59857	
2.59705	
2.59552	
2.59399	
2.59552	
2.59552	
2.58331	
2.59094	
2.59552	
2.59094	
2.59705	
2.59247	
2.59247	
2.58636	
2.59399	
2.58942	
2.59399	
2.59399	
2.59247	
2.59399	
2.59705	
2.59705	
2.58636	
2.59247	
2.59094	
2.59094	
2.58789	
2.59094	
2.59094	
2.59552	
2.59094	
2.60468	
2.59094	
2.58789	
2.59399	
2.58789	
2.59399	
2.59094	
2.59857	
2.59399	
2.59705	
2.59247	
2.59094	
2.59552	
2.59552	
2.58789	
2.59247	
2.60162	
2.59399	
2.59552	
2.59705	
2.60315	
2.59399	
2.60162	
2.59857	
2.59857	
2.58331	
2.59094	
2.60162	
2.59399	
2.60162	
2.59857	
2.59857	
2.59399	
2.59399	
2.59552	
2.59857	
2.59552	
2.58942	
2.59399	
2.59399	
2.59094	
2.59094	
2.59399	
2.58942	
2.59247	
2.58789	
2.59552	
2.59247	
2.59857	
2.59399	
2.6062	
2.59552	
2.59247	
2.59857	
2.59399	
2.59247	
2.59399	
2.59857	
2.59857	
2.59552	
2.59247	
2.59705	
2.60315	
2.59705	
2.59705	
2.59552	
2.59857	
2.59705	
2.60162	
2.59857	
2.60315	
2.59705	
2.60162	
2.60315	
2.60468	
2.58636	
2.59705	
2.60162	
2.59857	
2.60315	
2.60315	
2.59857	
2.59857	
2.59857	
2.59705	
2.60315	
2.59857	
2.59705	
2.59857	
2.59857	
2.60162	
2.59552	
2.60162	
2.60162	
2.60315	
2.59705	
2.60315	
2.60162	
2.60468	
2.59857	
2.6123	
2.59857	
2.60315	
2.60162	
2.59399	
2.59857	
2.59705	
2.60315	
2.60162	
2.60315	
2.59705	
2.60162	
2.60468	
2.60162	
2.60162	
2.59857	
2.60315	
2.59705	
2.59857	
2.60162	
2.6062	
2.59857	
2.59857	
2.59399	
2.60162	
2.59094	
2.59857	
2.60162	
2.59857	
2.60468	
2.59857	
2.59857	
2.59552	
2.59247	
2.59399	
2.59857	
2.60162	
2.59399	
2.59552	
2.60315	
2.59705	
2.59399	
2.59552	
2.59247	
2.59705	
2.59247	
2.59399	
2.59247	
2.59705	
2.58942	
2.60468	
2.59094	
2.59247	
2.59552	
2.58636	
2.59399	
2.58942	
2.59399	
2.59399	
2.59247	
2.58942	
2.58789	
2.59094	
2.59094	
2.58484	
2.58942	
2.59399	
2.58942	
2.59247	
2.58789	
2.59247	
2.59094	
2.59094	
2.58484	
2.59094	
2.58636	
2.58942	
2.59094	
2.58789	
2.59247	
2.58942	
2.59094	
2.58942	
2.59094	
2.59094	
2.59705	
2.59247	
2.59094	
2.59247	
2.60162	
2.59857	
2.59552	
2.59705	
2.59705	
2.59857	
2.59552	
2.59857	
2.59857	
2.60162	
2.59857	
2.60468	
2.59857	
2.59705	
2.59857	
2.59552	
2.59552	
2.59705	
2.59705	
2.60162	
2.59857	
2.59399	
2.59399	
2.60315	
2.59705	
2.59399	
2.59094	
2.59399	
2.59094	
2.59094	
2.59094	
2.59399	
2.59094	
2.59094	
2.58636	
2.59247	
2.58789	
2.59094	
2.59399	
2.58789	
2.59247	
2.59399	
2.59399	
2.59247	
2.58636	
2.58789	
2.58789	
2.59094	
2.59094	
2.59094	
2.59399	
2.59857	
2.59399	
2.59399	
2.59552	
2.59857	
2.59399	
2.59857	
2.59705	
2.60162	
2.59857	
2.59552	
2.59857	
2.59552	
2.59705	
2.59399	
2.59094	
2.58942	
2.59552	
2.60162	
2.60315	
2.59857	
2.59705	
2.59705	
2.59705	
2.59705	
2.59094	
2.59552	
2.59552	
2.59552	
2.59552	
2.59705	
2.59552	
2.59552	
2.58942	
2.59705	
2.59247	
2.59094	
2.59399	
2.58942	
2.59552	
2.59552	
2.60162	
2.59552	
2.59247	
2.59247	
2.59705	
2.59552	
2.59247	
2.59399	
2.59705	
2.60162	
2.59552	
2.59552	
2.59399	
2.59705	
2.59247	
2.59857	
2.59247	
2.59857	
2.59552	
2.59705	
2.59857	
2.59705	
2.60162	
2.59552	
2.59857	
2.59399	
2.59705	
2.60315	
2.60162	
2.60162	
2.59857	
2.60315	
2.60468	
2.59705	
2.59552	
2.59552	
2.59705	
2.59552	
2.59247	
2.59857	
2.59399	
2.59247	
2.58179	
2.59247	
2.58942	
2.59094	
2.59247	
2.58942	
2.59399	
2.59705	
2.59552	
2.59247	
2.59399	
2.59247	
2.59247	
2.59247	
2.59094	
2.58942	
2.59247	
2.59399	
2.58942	
2.58484	
2.58636	
2.59094	
2.58179	
2.58942	
2.58636	
2.59094	
2.58484	
2.58789	
2.58942	
2.58789	
2.58789	
2.58789	
2.58942	
2.58636	
2.59399	
2.59247	
2.59094	
2.58789	
2.58942	
2.58942	
2.59094	
2.58942	
2.58942	
2.59094	
2.59552	
2.59247	
2.59094	
2.59552	
2.58942	
2.59247	
2.58789	
2.59399	
2.59094	
2.58942	
2.59094	
2.58789	
2.58942	
2.58942	
2.59247	
2.58636	
2.59094	
2.58789	
2.58942	
2.58789	
2.58942	
2.58636	
2.58942	
2.58942	
2.58942	
2.58636	
2.59094	
2.59399	
2.58636	
2.59247	
2.58942	
2.59094	
2.58484	
2.58789	
2.58789	
2.58636	
2.58942	
2.58636	
2.58484	
2.58484	
2.59247	
2.59094	
2.58942	
2.59247	
2.59247	
2.59094	
2.59247	
2.58942	
2.59094	
2.59247	
2.59399	
2.59094	
2.58636	
2.59552	
2.58942	
2.59094	
2.58636	
2.59399	
2.59247	
2.59705	
2.59399	
2.59552	
2.59399	
2.59399	
2.59399	
2.59247	
2.59399	
2.59399	
2.59247	
2.59247	
2.59247	
2.59247	
2.59552	
2.59552	
2.59247	
2.58942	
2.59247	
2.59552	
2.58942	
2.59552	
2.59552	
2.59857	
2.59552	
2.59399	
2.59247	
2.59552	
2.59857	
2.59552	
2.59552	
2.59552	
2.59552	
2.59399	
2.59399	
2.59247	
2.59552	
2.59705	
2.59857	
2.59552	
2.59552	
2.59705	
2.6062	
2.59857	
2.59857	
2.60315	
2.59247	
2.59247	
2.59094	
2.59705	
2.59399	
2.59705	
2.59399	
2.59094	
2.59857	
2.59247	
2.58942	
2.59399	
2.59552	
2.59552	
2.59399	
2.59399	
2.59247	
2.59247	
2.59552	
2.59247	
2.59247	
2.58484	
2.58942	
2.59094	
2.58942	
2.59552	
2.59399	
2.59552	
2.59247	
2.59399	
2.59094	
2.59552	
2.59857	
2.59094	
2.59399	
2.60468	
2.59857	
2.59552	
2.60315	
2.60162	
2.60162	
2.59705	
2.59857	
2.59857	
2.59552	
2.59705	
2.60773	
2.59857	
2.59552	
2.60315	
2.59552	
2.59857	
2.59552	
2.59705	
2.59857	
2.59552	
2.59552	
2.59399	
2.59857	
2.59247	
2.58636	
2.59094	
2.59399	
2.59247	
2.59094	
2.59247	
2.58789	
2.58636	
2.59094	
2.59247	
2.59094	
2.57874	
2.58636	
2.58942	
2.58484	
2.59094	
2.58484	
2.59399	
2.58484	
2.58942	
2.58484	
2.58789	
2.58942	
2.58636	
2.58636	
2.59247	
2.58331	
2.58179	
2.58484	
2.58179	
2.58484	
2.58331	
2.58331	
2.58484	
2.58331	
2.58331	
2.59399	
2.58331	
2.57874	
2.58484	
2.58179	
2.58331	
2.58179	
2.58484	
2.58331	
2.58636	
2.58484	
2.58179	
2.58179	
2.58179	
2.57721	
2.57721	
2.58179	
2.57874	
2.58026	
2.57874	
2.58179	
2.57874	
2.58179	
2.58026	
2.58179	
2.57263	
2.58026	
2.58484	
2.58026	
2.58484	
2.58179	
2.58331	
2.58331	
2.58026	
2.58026	
2.58179	
2.58179	
2.57721	
2.57874	
2.58636	
2.58636	
2.57874	
2.58331	
2.58331	
2.58331	
2.58026	
2.58636	
2.58179	
2.58026	
2.58179	
2.59247	
2.58331	
2.57874	
2.58179	
2.58026	
2.58026	
2.58179	
2.58484	
2.58026	
2.58179	
2.57874	
2.57874	
2.58026	
2.57874	
2.57568	
2.57568	
2.58179	
2.57721	
2.57874	
2.58026	
2.57874	
2.57874	
2.57721	
2.58026	
2.58026	
2.57263	
2.58179	
2.58331	
2.58331	
2.58484	
2.58484	
2.58484	
2.58484	
2.58484	
2.58484	
2.58484	
2.58484	
2.58179	
2.58636	
2.59094	
2.58636	
2.58026	
2.58179	
2.58179	
2.58179	
2.57874	
2.58636	
2.58026	
2.58179	
2.58331	
2.59399	
2.58179	
2.58331	
2.58331	
2.58179	
2.58331	
2.58636	
2.58636	
2.58789	
2.59247	
2.58789	
2.58942	
2.59247	
2.58789	
2.58484	
2.58636	
2.58942	
2.58331	
2.58789	
2.58789	
2.59247	
2.59247	
2.59247	
2.59247	
2.59705	
2.58331	
2.59247	
2.59552	
2.58789	
2.59552	
2.59552	
2.58636	
2.59094	
2.58789	
2.58789	
2.58636	
2.58942	
2.58789	
2.59094	
2.59247	
2.58942	
2.58789	
2.58942	
2.58789	
2.58789	
2.58789	
2.58789	
2.58942	
2.59247	
2.58942	
2.60162	
2.59094	
2.58789	
2.59247	
2.58484	
2.58789	
2.58942	
2.59094	
2.59247	
2.59247	
2.58789	
2.58942	
2.59247	
2.59094	
2.58789	
2.58942	
2.58942	
2.58636	
2.58789	
2.58331	
2.58942	
2.58789	
2.58636	
2.58636	
2.59094	
2.58026	
2.58942	
2.58789	
2.58789	
2.59094	
2.59094	
2.58636	
2.58789	
2.58484	
2.58484	
2.58789	
2.58636	
2.58179	
2.58636	
2.59247	
2.59247	
2.58942	
2.59094	
2.59399	
2.59399	
2.58789	
2.59247	
2.59094	
2.59094	
2.58636	
2.59705	
2.58636	
2.58636	
2.58942	
2.58484	
2.58942	
2.58942	
2.59094	
2.58942	
2.59094	
2.58636	
2.59094	
2.59399	
2.59094	
2.58789	
2.58636	
2.58789	
2.58484	
2.58789	
2.58636	
2.58942	
2.58636	
2.58942	
2.58484	
2.58789	
2.58026	
2.59094	
2.58636	
2.58636	
2.59399	
2.59247	
2.59399	
2.58942	
2.58789	
2.58636	
2.58484	
2.58789	
2.58331	
2.58636	
2.59094	
2.58942	
2.59094	
2.59094	
2.58942	
2.59094	
2.58636	
2.59094	
2.58942	
2.59705	
2.58942	
2.59705	
2.59399	
2.58942	
2.59399	
2.59094	
2.59247	
2.59247	
2.59552	
2.59399	
2.59399	
2.59247	
2.59399	
2.59552	
2.59399	
2.59247	
2.59094	
2.59247	
2.58789	
2.59094	
2.58942	
2.59552	
2.58942	
2.59247	
2.58484	
2.59399	
2.58484	
2.58942	
2.58942	
2.58636	
2.59094	
2.58789	
2.59247	
2.58636	
2.58331	
2.58636	
2.58636	
2.58942	
2.58484	
2.58942	
2.59552	
2.59552	
2.59552	
2.59705	
2.59399	
2.59552	
2.58789	
2.59399	
2.59094	
2.60162	
2.58942	
2.59705	
2.59094	
2.58942	
2.59247	
2.59247	
2.59247	
2.58942	
2.59399	
2.59399	
2.59857	
2.59399	
2.59399	
2.59552	
2.59399	
2.59247	
2.59094	
2.59399	
2.59399	
2.59247	
2.59247	
2.59705	
2.58942	
2.59247	
2.58942	
2.59552	
2.58942	
2.59094	
2.59247	
2.58942	
2.59247	
2.59247	
2.59552	
2.59094	
2.59094	
2.58942	
2.59247	
2.59094	
2.59399	
2.59094	
2.59247	
2.59094	
2.59094	
2.58789	
2.58942	
2.59094	
2.58636	
2.59247	
2.58789	
2.59094	
2.58484	
2.59247	
2.58942	
2.58942	
2.59399	
2.58942	
2.58636	
2.58484	
2.59094	
2.59247	
2.59705	
2.58942	
2.59399	
2.59399	
2.59094	
2.58942	
2.59094	
2.59247	
2.59399	
2.59094	
2.58942	
2.58942	
2.58484	
2.58789	
2.58484	
2.59094	
2.58636	
2.58789	
2.59247	
2.58789	
2.59247	
2.58789	
2.59399	
2.58789	
2.58636	
2.58636	
2.58789	
2.58484	
2.58179	
2.58331	
2.58636	
2.58636	
2.58331	
2.58179	
2.58331	
2.58484	
2.58179	
2.59094	
2.58484	
2.58942	
2.58636	
2.59094	
2.58942	
2.58636	
2.58789	
2.58484	
2.58789	
2.58179	
2.58942	
2.58789	
2.59094	
2.58789	
2.58942	
2.58789	
2.58789	
2.58484	
2.58179	
2.58331	
2.58789	
2.58484	
2.58789	
2.59094	
2.58331	
2.58484	
2.58179	
2.59094	
2.58789	
2.58789	
2.58789	
2.58789	
2.59094	
2.59094	
2.59705	
2.58942	
2.58942	
2.58789	
2.58636	
2.58484	
2.58484	
2.58789	
2.58942	
2.58484	
2.58789	
2.58789	
2.59094	
2.59399	
2.58636	
2.59705	
2.59399	
2.60162	
2.59094	
2.59399	
2.59094	
2.58789	
2.59399	
2.59399	
2.59247	
2.59247	
2.59705	
2.59705	
2.59857	
2.59552	
2.59399	
2.59247	
2.59705	
2.58942	
2.59094	
2.59094	
2.59247	
2.59094	
2.59247	
2.59399	
2.58789	
2.59247	
2.58484	
2.59094	
2.58942	
2.58942	
2.58942	
2.58484	
2.58942	
2.59094	
2.59399	
2.59094	
2.59094	
2.58789	
2.58942	
2.59094	
2.59247	
2.58789	
2.59247	
2.59399	
2.59247	
2.58789	
2.59399	
2.58942	
2.58636	
2.59247	
2.59247	
2.59399	
2.58942	
2.59399	
2.58942	
2.59094	
2.59705	
2.59247	
2.59094	
2.58942	
2.59399	
2.59094	
2.59247	
2.59247	
2.59247	
2.59247	
2.59552	
2.59247	
2.59399	
2.59399	
2.59857	
2.59552	
2.59399	
2.60162	
2.59399	
2.59705	
2.59094	
2.60162	
2.59552	
2.59705	
2.59705	
2.59399	
2.59705	
2.59552	
2.59399	
2.59094	
2.59247	
2.58942	
2.59552	
2.59247	
2.59247	
2.59247	
2.59247	
2.59247	
2.59247	
2.58636	
2.59094	
2.59094	
2.59094	
2.58942	
2.58942	
2.59705	
2.58636	
2.59552	
2.59094	
2.58636	
2.58789	
2.58636	
2.58636	
2.58636	
2.58789	
2.58331	
2.58789	
2.58942	
2.58484	
2.58636	
2.58789	
2.59247	
2.58789	
2.58636	
2.59247	
2.58636	
2.58331	
2.58789	
2.58179	
2.58484	
2.57874	
2.58636	
2.58331	
2.58789	
2.58331	
2.58484	
2.58484	
2.58331	
2.58026	
2.58179	
2.58636	
2.58026	
2.58484	
2.58026	
2.58331	
2.58026	
2.58026	
2.58484	
2.58636	
2.58026	
2.58636	
2.58331	
2.58179	
2.58636	
2.58484	
2.58636	
2.58331	
2.58789	
2.58331	
2.58331	
2.58789	
2.58484	
2.58331	
2.59094	
2.58179	
2.58179	
2.58484	
2.58179	
2.58026	
2.58026	
2.58179	
2.58026	
2.58331	
2.58179	
2.59247	
2.57874	
2.58026	
2.58636	
2.58026	
2.58331	
2.58026	
2.58484	
2.58484	
2.59094	
2.58484	
2.58331	
2.59094	
2.58942	
2.57874	
2.58331	
2.59094	
2.58179	
2.58484	
2.58331	
2.58484	
2.58179	
2.58331	
2.58026	
2.58331	
2.57568	
2.58484	
2.58484	
2.58331	
2.58789	
2.58484	
2.58636	
2.58026	
2.58026	
2.57874	
2.57874	
2.58179	
2.57874	
2.58026	
2.58484	
2.58331	
2.58026	
2.58026	
2.58026	
2.58179	
2.58179	
2.58179	
2.57874	
2.58179	
2.57721	
2.58942	
2.58026	
2.58026	
2.58484	
2.57874	
2.57874	
2.57568	
2.58484	
2.57568	
2.58026	
2.57874	
2.57874	
2.58179	
2.57416	
2.57111	
2.57874	
2.58026	
2.57568	
2.57874	
2.58179	
2.58026	
2.57568	
2.57874	
2.57721	
2.58026	
2.57111	
2.57874	
2.58179	
2.57874	
2.58636	
2.58331	
2.57874	
2.57721	
2.57874	
2.57721	
2.58331	
2.58331	
2.58179	
2.58484	
2.58942	
2.58636	
2.58331	
2.58942	
2.58636	
2.58484	
2.58484	
2.58789	
2.58636	
2.58789	
2.58636	
2.59857	
2.58636	
2.58636	
2.58942	
2.58484	
2.58789	
2.58789	
2.59094	
2.58636	
2.58942	
2.58636	
2.59094	
2.59094	
2.58789	
2.57874	
2.58942	
2.58789	
2.58636	
2.58636	
2.58789	
2.58942	
2.58484	
2.58636	
2.58636	
2.58636	
2.57568	
2.58179	
2.58484	
2.58484	
2.58789	
2.58636	
2.58636	
2.58484	
2.58331	
2.58331	
2.58484	
2.58484	
2.58331	
2.58179	
2.58484	
2.58484	
2.58026	
2.58942	
2.58789	
2.58942	
2.58331	
2.58942	
2.58484	
2.58942	
2.58331	
2.59552	
2.58179	
2.58331	
2.58484	
2.58331	
2.58636	
2.58331	
2.58789	
2.58789	
2.58789	
2.58484	
2.58789	
2.59094	
2.58789	
2.58331	
2.58636	
2.58636	
2.58331	
2.58789	
2.58636	
2.58636	
2.58179	
2.58636	
2.58484	
2.58484	
2.57568	
2.58331	
2.58636	
2.58026	
2.58789	
2.58789	
2.58484	
2.57874	
2.58331	
2.58179	
2.58484	
2.58179	
2.57721	
2.58331	
2.58636	
2.58484	
2.58331	
2.58484	
2.58789	
2.58636	
2.58484	
2.58942	
2.58789	
2.58942	
2.58331	
2.59857	
2.58331	
2.58636	
2.58789	
2.58179	
2.58484	
2.58942	
2.58789	
2.58789	
2.59094	
2.58789	
2.59094	
2.59247	
2.58789	
2.58179	
2.58942	
2.58789	
2.58636	
2.58484	
2.58636	
2.58942	
2.58331	
2.58942	
2.58484	
2.58484	
2.57416	
2.58331	
2.59094	
2.58484	
2.58942	
2.58636	
2.58484	
2.58484	
2.58331	
2.58484	
2.58484	
2.58331	
2.57874	
2.58179	
2.58484	
2.58636	
2.58484	
2.59094	
2.58636	
2.58942	
2.58331	
2.58789	
2.58636	
2.58942	
2.58484	
2.59552	
2.58789	
2.58636	
2.58942	
2.58331	
2.58789	
2.58636	
2.58942	
2.59094	
2.59094	
2.58636	
2.58789	
2.59247	
2.58789	
2.58484	
2.58331	
2.58179	
2.58026	
2.58484	
2.58179	
2.58484	
2.58331	
2.58636	
2.58179	
2.58789	
2.57263	
2.58331	
2.58331	
2.58026	
2.59247	
2.58484	
2.58484	
2.58179	
2.58179	
2.58484	
2.58484	
2.58484	
2.57874	
2.58179	
2.58484	
2.58179	
2.58331	
2.58331	
2.58484	
2.58484	
2.57874	
2.58636	
2.58179	
2.58636	
2.58331	
2.59552	
2.58636	
2.58484	
2.58942	
2.58026	
2.58179	
2.58026	
2.58179	
2.58484	
2.58636	
2.58026	
2.58179	
2.58636	
2.58331	
2.57874	
2.58026	
2.58026	
2.57721	
2.58331	
2.57874	
2.58636	
2.57874	
2.58331	
2.57568	
2.58179	
2.57416	
2.57721	
2.58026	
2.57874	
2.58331	
2.58026	
2.58179	
2.58026	
2.57874	
2.58179	
2.58179	
2.58484	
2.57874	
2.58331	
2.58331	
2.58331	
2.58179	
2.58331	
2.58026	
2.58179	
2.58026	
2.58484	
2.58179	
2.58789	
2.58026	
2.58636	
2.57874	
2.57721	
2.58026	
2.58026	
2.58026	
2.57416	
2.57874	
2.58179	
2.58026	
2.57874	
2.58026	
2.58026	
2.58026	
2.57568	
2.57874	
2.58026	
2.57721	
2.58179	
2.57874	
2.58331	
2.57721	
2.57721	
2.57721	
2.58331	
2.57874	
2.57874	
2.58179	
2.57568	
2.58179	
2.58331	
2.58331	
2.58484	
2.57874	
2.58026	
2.58331	
2.58026	
2.58179	
2.58484	
2.58484	
2.58789	
2.58179	
2.58636	
2.58636	
2.58942	
2.58331	
2.58789	
2.58789	
2.59094	
2.58484	
2.58789	
2.58789	
2.58636	
2.59094	
2.58484	
2.58484	
2.58026	
2.58789	
2.58789	
2.58942	
2.58331	
2.58636	
2.58942	
2.58484	
2.58484	
2.58484	
2.58789	
2.58636	
2.58484	
2.58484	
2.58789	
2.58636	
2.58484	
2.57721	
2.58179	
2.58331	
2.58331	
2.58331	
2.58026	
2.58331	
2.58636	
2.58942	
2.58179	
2.58179	
2.57721	
2.58179	
2.58179	
2.57721	
2.57874	
2.58026	
2.58026	
2.57874	
2.57416	
2.57721	
2.58026	
2.57874	
2.58179	
2.57874	
2.58484	
2.58026	
2.58331	
2.58179	
2.58179	
2.58636	
2.58179	
2.58179	
2.57568	
2.58179	
2.58484	
2.58331	
2.58331	
2.58179	
2.58179	
2.58331	
2.58026	
2.57721	
2.58331	
2.58026	
2.58331	
2.58179	
2.58331	
2.58331	
2.58331	
2.57721	
2.58636	
2.58026	
2.58179	
2.58179	
2.58026	
2.58484	
2.58789	
2.58789	
2.58636	
2.58331	
2.58331	
2.58484	
2.58331	
2.58484	
2.58484	
2.58636	
2.58179	
2.58331	
2.57874	
2.58636	
2.58636	
2.58484	
2.58484	
2.58026	
2.58789	
2.58331	
2.58484	
2.58179	
2.58331	
2.58331	
2.58026	
2.58179	
2.57721	
2.57874	
2.58179	
2.58636	
2.58026	
2.58179	
2.58331	
2.58636	
2.58179	
2.58331	
2.58636	
2.58942	
2.58484	
2.58331	
2.58636	
2.58026	
2.58026	
2.58179	
2.58636	
2.58331	
2.58179	
2.58636	
2.58179	
2.58484	
2.58484	
2.58484	
2.58026	
2.57874	
2.58026	
2.58026	
2.57874	
2.58026	
2.58179	
2.57874	
2.58026	
2.58026	
2.57416	
2.57416	
2.58179	
2.57568	
2.57874	
2.58026	
2.58179	
2.57263	
2.57874	
2.57568	
2.57874	
2.57874	
2.57721	
2.57874	
2.58026	
2.58179	
2.58026	
2.58026	
2.58179	
2.58331	
2.58026	
2.58179	
2.58331	
2.58026	
2.58026	
2.58484	
2.57874	
2.58026	
2.58331	
2.57874	
2.58179	
2.57721	
2.58331	
2.58179	
2.58331	
2.58026	
2.57721	
2.57874	
2.58179	
2.58484	
2.57874	
2.58331	
2.57721	
2.57874	
2.57721	
2.57721	
2.57416	
2.57721	
2.57874	
2.57568	
2.57111	
2.57263	
2.57874	
2.57568	
2.58026	
2.58179	
2.58331	
2.57568	
2.58026	
2.57874	
2.57721	
2.58179	
2.58179	
2.57874	
2.58331	
2.58179	
2.57721	
2.58179	
2.57874	
2.58026	
2.57874	
2.58026	
2.58026	
2.57874	
2.57874	
2.58789	
2.58026	
2.58026	
2.58179	
2.57568	
2.57874	
2.57568	
2.58331	
2.57874	
2.58179	
2.58026	
2.57874	
2.58026	
2.57721	
2.57568	
2.58026	
2.58179	
2.57568	
2.57874	
2.57874	
2.57874	
2.57721	
2.57568	
2.57874	
2.58179	
2.57111	
2.57721	
2.58179	
2.57568	
2.58331	
2.58331	
2.58331	
2.57568	
2.57874	
2.57568	
2.58026	
2.58179	
2.58179	
2.58331	
2.58789	
2.58484	
2.58026	
2.58484	
2.58331	
2.58636	
2.58331	
2.58484	
2.58484	
2.58179	
2.58026	
2.59094	
2.58331	
2.58179	
2.58636	
2.58026	
2.58484	
2.58179	
2.58636	
2.58484	
2.58942	
2.58484	
2.58331	
2.58789	
2.58331	
2.57416	
2.58331	
2.58331	
2.58026	
2.58636	
2.58331	
2.58636	
2.58484	
2.58636	
2.58179	
2.58484	
2.57721	
2.58636	
2.58636	
2.58484	
2.58789	
2.58789	
2.58636	
2.58026	
2.58484	
2.58484	
2.58331	
2.58942	
2.58331	
2.58179	
2.58789	
2.58179	
2.58026	
2.58179	
2.57874	
2.58331	
2.58331	
2.57874	
2.57874	
2.58026	
2.58331	
2.58942	
2.58331	
2.58179	
2.58636	
2.58026	
2.58331	
2.58179	
2.58484	
2.58026	
2.58484	
2.58179	
2.58484	
2.58484	
2.58179	
2.57416	
2.58179	
2.58789	
2.58026	
2.58331	
2.57874	
2.58484	
2.58026	
2.58331	
2.57874	
2.58331	
2.57111	
2.58026	
2.58331	
2.58331	
2.58484	
2.58331	
2.58942	
2.58331	
2.58484	
2.57874	
2.58179	
2.58331	
2.58179	
2.58179	
2.58789	
2.58484	
2.58026	
2.58331	
2.58484	
2.58026	
2.58026	
2.58179	
2.58179	
2.58026	
2.57874	
2.59094	
2.58484	
2.58179	
2.58484	
2.58026	
2.58026	
2.58636	
2.58484	
2.58179	
2.58636	
2.58331	
2.57874	
2.58331	
2.57874	
2.57721	
2.57874	
2.57721	
2.57568	
2.57721	
2.57111	
2.57874	
2.57263	
2.57721	
2.58026	
2.57721	
2.565	
2.57874	
2.58331	
2.57416	
2.58179	
2.57721	
2.58026	
2.57874	
2.57568	
2.57568	
2.57874	
2.57874	
2.57568	
2.57568	
2.58026	
2.57874	
2.57721	
2.58026	
2.57874	
2.57568	
2.57416	
2.57721	
2.57416	
2.57874	
2.57721	
2.58942	
2.57568	
2.57568	
2.57568	
2.57416	
2.57721	
2.57874	
2.58331	
2.58026	
2.57874	
2.57721	
2.57721	
2.57568	
2.57721	
2.57263	
2.57263	
2.57721	
2.56805	
2.57568	
2.57263	
2.57568	
2.57263	
2.57568	
2.57263	
2.57263	
2.56042	
2.57416	
2.57263	
2.56805	
2.57568	
2.57416	
2.57416	
2.57111	
2.57568	
2.57416	
2.57874	
2.57874	
2.57721	
2.57568	
2.57721	
2.57263	
2.57263	
2.57874	
2.57874	
2.58026	
2.57263	
2.58179	
2.57874	
2.58026	
2.57568	
2.58942	
2.57721	
2.57874	
2.57874	
2.57263	
2.57721	
2.58026	
2.57874	
2.57874	
2.58026	
2.58026	
2.58026	
2.58179	
2.57874	
2.57568	
2.58331	
2.58179	
2.57874	
2.58026	
2.57874	
2.58331	
2.57874	
2.58026	
2.57721	
2.58179	
2.56805	
2.58026	
2.58026	
2.57568	
2.58179	
2.58026	
2.57874	
2.57874	
2.57721	
2.57263	
2.57721	
2.57721	
2.57263	
2.57874	
2.58331	
2.57874	
2.57568	
2.58484	
2.57874	
2.58026	
2.57721	
2.58179	
2.57721	
2.58331	
2.57568	
2.58789	
2.58026	
2.57568	
2.57721	
2.57416	
2.57568	
2.57416	
2.57568	
2.58026	
2.57721	
2.57263	
2.57721	
2.58179	
2.57874	
2.57568	
2.57721	
2.58179	
2.57416	
2.57874	
2.57721	
2.58484	
2.57874	
2.57874	
2.57568	
2.57874	
2.56653	
2.57721	
2.58026	
2.57721	
2.58179	
2.57874	
2.58026	
2.57568	
2.57721	
2.57416	
2.57721	
2.57568	
2.57111	
2.57568	
2.58179	
2.57874	
2.57721	
2.58331	
2.58179	
2.58026	
2.57568	
2.57721	
2.57416	
2.58026	
2.57263	
2.58331	
2.57721	
2.57721	
2.57721	
2.57263	
2.57721	
2.57111	
2.57568	
2.58026	
2.58026	
2.57568	
2.58179	
2.58026	
2.58026	
2.57721	
2.57721	
2.58179	
2.57721	
2.57721	
2.57721	
2.58484	
2.57568	
2.57874	
2.57263	
2.58026	
2.57416	
2.58026	
2.57874	
2.57874	
2.58179	
2.57874	
2.58484	
2.57874	
2.57721	
2.57874	
2.57874	
2.57874	
2.57416	
2.57874	
2.58026	
2.58026	
2.57874	
2.57874	
2.57721	
2.58179	
2.57416	
2.57874	
2.57721	
2.58179	
2.57416	
2.58026	
2.57568	
2.57416	
2.57721	
2.56805	
2.57416	
2.57111	
2.57568	
2.57568	
2.58026	
2.57568	
2.57721	
2.57721	
2.57874	
2.57416	
2.57721	
2.57568	
2.57263	
2.57416	
2.57416	
2.57874	
2.57568	
2.58026	
2.57416	
2.58026	
2.57568	
2.58026	
2.58484	
2.57874	
2.58179	
2.57874	
2.58331	
2.57874	
2.57568	
2.57721	
2.58179	
2.57721	
2.57874	
2.57874	
2.58179	
2.57874	
2.57568	
2.58179	
2.57568	
2.57874	
2.57263	
2.57721	
2.57416	
2.57874	
2.57263	
2.57721	
2.57568	
2.57721	
2.58179	
2.57263	
2.57568	
2.57111	
2.57568	
2.57874	
2.57874	
2.57416	
2.57721	
2.57568	
2.57416	
2.57111	
2.57111	
2.57263	
2.57568	
2.57416	
2.57263	
2.57721	
2.57111	
2.57263	
2.56653	
2.57568	
2.57263	
2.57111	
2.57263	
2.56805	
2.57416	
2.57263	
2.57568	
2.57263	
2.56805	
2.56653	
2.57263	
2.56805	
2.56805	
2.57111	
2.56805	
2.56805	
2.56653	
2.56805	
2.56653	
2.57111	
2.56348	
2.57263	
2.57416	
2.58179	
2.57416	
2.57568	
2.57111	
2.57263	
2.57721	
2.57416	
2.57263	
2.56805	
2.57568	
2.57568	
2.58026	
2.57568	
2.57568	
2.57568	
2.57568	
2.57568	
2.57721	
2.57568	
2.58026	
2.57568	
2.57416	
2.58331	
2.57721	
2.57874	
2.57416	
2.57721	
2.57721	
2.57568	
2.57874	
2.56805	
2.57263	
2.57568	
2.57568	
2.56805	
2.565	
2.5589	
2.5589	
2.5589	
2.55737	
2.5589	
2.56653	
2.56805	
2.56348	
2.56348	
2.565	
2.57263	
2.56042	
2.56042	
2.5589	
2.56042	
2.55432	
2.56195	
2.56042	
2.56348	
2.56805	
2.56348	
2.56653	
2.565	
2.56348	
2.57111	
2.57111	
2.56653	
2.57263	
2.57568	
2.57416	
2.57263	
2.56653	
2.56348	
2.57263	
2.56653	
2.56348	
2.57111	
2.58026	
2.58636	
2.57874	
2.58331	
2.57721	
2.57568	
2.57263	
2.56653	
2.565	
2.58179	
2.59857	
2.60315	
2.59552	
2.58789	
2.58331	
2.57721	
2.57416	
2.57111	
2.55737	
2.5528	
2.54669	
2.54974	
2.57721	
2.58789	
2.57874	
2.58484	
2.57721	
2.57568	
2.56805	
2.57263	
2.56653	
2.56195	
2.5589	
2.55127	
2.55127	
2.54211	
2.54211	
2.54364	
2.56195	
2.565	
2.565	
2.56348	
2.5528	
2.55127	
2.57416	
2.58942	
2.59094	
2.60162	
2.59094	
2.59399	
2.58026	
2.58636	
2.59247	
2.59399	
2.58484	
2.58789	
2.59552	
2.60162	
2.60162	
2.58942	
2.57721	
2.57721	
2.56653	
2.56653	
2.57263	
2.56195	
2.56653	
2.54669	
2.5177	
2.50092	
2.5177	
2.52991	
2.54822	
2.55737	
2.56042	
2.57568	
2.57416	
2.58636	
2.57874	
2.565	
2.55737	
2.57111	
2.59094	
2.61078	
2.62451	
2.61993	
2.61688	
2.6062	
2.59552	
2.58636	
2.57721	
2.57263	
2.565	
2.56042	
2.565	
2.58789	
2.59094	
2.57111	
2.565	
2.58942	
2.60925	
2.61688	
2.61078	
2.60315	
2.59399	
2.59094	
2.58179	
2.565	
2.57263	
2.57568	
2.57263	
2.57721	
2.57874	
2.57874	
2.58636	
2.59094	
2.60315	
2.60773	
2.6123	
2.60315	
2.59399	
2.57721	
2.56653	
2.56195	
2.5528	
2.55127	
2.5589	
2.55737	
2.54517	
2.52838	
2.52838	
2.51923	
2.5238	
2.52838	
2.54364	
2.57111	
2.56042	
2.57111	
2.60468	
2.61841	
2.62451	
2.60925	
2.60773	
2.61078	
2.62146	
2.60773	
2.59247	
2.56653	
2.57416	
2.57263	
2.56348	
2.56805	
2.56348	
2.56195	
2.57721	
2.57111	
2.56348	
2.5589	
2.56042	
2.54669	
2.57263	
2.57111	
2.58179	
2.58789	
2.61383	
2.63672	
2.63519	
2.64435	
2.63824	
2.61993	
2.59399	
2.56348	
2.54669	
2.54517	
2.56653	
2.56653	
2.5528	
2.54669	
2.54822	
2.54669	
2.53448	
2.56348	
2.60468	
2.62299	
2.61841	
2.62756	
2.61688	
2.61688	
2.62756	
2.62299	
2.61841	
2.61536	
2.61383	
2.60773	
2.60162	
2.58331	
2.57721	
2.54669	
2.53296	
2.51617	
2.52228	
2.53143	
2.54669	
2.55585	
2.55127	
2.56653	
2.57263	
2.57263	
2.56348	
2.55585	
2.53448	
2.53143	
2.52228	
2.5116	
2.53296	
2.56042	
2.57416	
2.57568	
2.58484	
2.59094	
2.56348	
2.52991	
2.53601	
2.54364	
2.56042	
2.58179	
2.58484	
2.59705	
2.58942	
2.59857	
2.61536	
2.61688	
2.60773	
2.59857	
2.59552	
2.58636	
2.57263	
2.56805	
2.58636	
2.58789	
2.59857	
2.63214	
2.63214	
2.61383	
2.59247	
2.59094	
2.58942	
2.58636	
2.58789	
2.58789	
2.57721	
2.56805	
2.57416	
2.58179	
2.56042	
2.55127	
2.5589	
2.55432	
2.5528	
2.56348	
2.54059	
2.55585	
2.5589	
2.57416	
2.57416	
2.54517	
2.54669	
2.53754	
2.5528	
2.55585	
2.57416	
2.57568	
2.59857	
2.60925	
2.6123	
2.6123	
2.63672	
2.65198	
2.63824	
2.62146	
2.60468	
2.59399	
2.58789	
2.57111	
2.5589	
2.54669	
2.53143	
2.52686	
2.52991	
2.54364	
2.58179	
2.60162	
2.60773	
2.66113	
2.6825	
2.67944	
2.68707	
2.67334	
2.66113	
2.63824	
2.63214	
2.62146	
2.60773	
2.59705	
2.57721	
2.55127	
2.53296	
2.53601	
2.56195	
2.57721	
2.57721	
2.59094	
2.6123	
2.62909	
2.6413	
2.63519	
2.62909	
2.63214	
2.62146	
2.59399	
2.57111	
2.52991	
2.51465	
2.51007	
2.55737	
2.57263	
2.58942	
2.60925	
2.60162	
2.58636	
2.57263	
2.565	
2.5589	
2.54364	
2.54822	
2.54974	
2.55432	
2.56195	
2.57568	
2.57111	
2.57721	
2.59552	
2.59247	
2.57568	
2.57721	
2.57263	
2.6123	
2.59552	
2.58484	
2.55737	
2.52686	
2.53601	
2.53448	
2.52991	
2.51465	
2.55432	
2.56805	
2.59552	
2.61688	
2.62299	
2.62146	
2.63519	
2.65808	
2.6474	
2.62604	
2.6062	
2.6062	
2.61536	
2.63519	
2.6413	
2.63519	
2.61841	
2.61993	
2.6123	
2.61383	
2.63214	
2.61536	
2.60315	
2.58026	
2.56348	
2.54517	
2.54364	
2.52686	
2.52533	
2.53143	
2.53296	
2.5528	
2.57721	
2.63214	
2.68707	
2.72217	
2.73132	
2.72827	
2.70538	
2.67181	
2.62451	
2.59857	
2.5589	
2.54974	
2.56348	
2.53754	
2.51617	
2.50854	
2.52533	
2.54822	
2.57416	
2.57111	
2.57416	
2.58942	
2.60468	
2.62451	
2.62146	
2.66571	
2.65045	
2.65045	
2.66724	
2.64893	
2.62146	
2.59705	
2.57874	
2.56195	
2.54517	
2.53296	
2.53296	
2.54669	
2.57568	
2.58331	
2.60925	
2.62299	
2.62451	
2.62604	
2.65198	
2.66113	
2.65198	
2.64587	
2.61078	
2.60162	
2.60315	
2.63519	
2.65656	
2.64282	
2.6413	
2.62909	
2.61078	
2.59552	
2.58179	
2.60468	
2.61536	
2.60773	
2.60162	
2.58026	
2.57568	
2.57721	
2.57721	
2.59094	
2.58942	
2.57721	
2.59705	
2.61383	
2.59705	
2.57721	
2.55432	
2.56042	
2.58636	
2.59552	
2.60162	
2.58942	
2.58331	
2.59857	
2.61536	
2.62604	
2.66876	
2.70386	
2.71301	
2.6947	
2.65198	
2.6413	
2.63214	
2.63824	
2.62146	
2.61078	
2.59552	
2.57263	
2.55585	
2.54364	
2.54364	
2.51923	
2.5528	
2.58484	
2.59399	
2.59705	
2.60162	
2.60468	
2.61841	
2.65808	
2.68097	
2.67944	
2.69623	
2.68555	
2.6886	
2.66876	
2.67487	
2.66724	
2.66571	
2.64587	
2.62909	
2.60162	
2.59399	
2.56805	
2.5528	
2.54059	
2.54364	
2.55127	
2.57263	
2.60468	
2.61841	
2.61841	
2.62146	
2.63367	
2.61383	
2.62756	
2.62146	
2.61688	
2.56805	
2.54669	
2.55585	
2.56348	
2.6062	
2.64282	
2.66571	
2.65808	
2.64893	
2.63519	
2.63519	
2.63367	
2.63367	
2.63214	
2.61383	
2.57416	
2.58484	
2.60925	
2.62756	
2.63367	
2.63519	
2.61841	
2.58484	
2.58331	
2.56348	
2.57263	
2.58789	
2.60925	
2.6413	
2.64282	
2.63977	
2.67639	
2.68555	
2.67029	
2.65656	
2.63824	
2.63367	
2.61841	
2.6123	
2.59094	
2.57874	
2.6062	
2.61536	
2.62604	
2.62451	
2.63519	
2.60773	
2.61383	
2.60315	
2.61078	
2.61688	
2.64893	
2.67944	
2.69928	
2.7359	
2.74353	
2.6947	
2.6474	
2.61536	
2.57874	
2.57721	
2.58942	
2.59399	
2.6123	
2.60925	
2.6123	
2.61993	
2.63977	
2.60773	
2.56805	
2.57416	
2.58026	
2.5589	
2.54211	
2.53296	
2.52533	
2.52228	
2.51312	
2.53448	
2.64435	
2.72064	
2.71912	
2.69928	
2.6886	
2.67487	
2.62451	
2.59552	
2.58636	
2.57874	
2.57416	
2.58636	
2.59705	
2.61078	
2.61078	
2.62756	
2.6413	
2.65198	
2.6825	
2.71301	
2.742	
2.71301	
2.69928	
2.70233	
2.69928	
2.69775	
2.68707	
2.67944	
2.65808	
2.65045	
2.62604	
2.62299	
2.59247	
2.54211	
2.52991	
2.55432	
2.53448	
2.53601	
2.57416	
2.60925	
2.62451	
2.67334	
2.71301	
2.70844	
2.71454	
2.69775	
2.67334	
2.64587	
2.61841	
2.58484	
2.57568	
2.58484	
2.59399	
2.57874	
2.565	
2.57874	
2.56348	
2.54669	
2.52838	
2.5589	
2.565	
2.565	
2.56195	
2.60468	
2.66571	
2.6886	
2.67639	
2.67334	
2.67792	
2.68707	
2.66571	
2.6535	
2.64893	
2.63519	
2.62909	
2.65045	
2.66571	
2.66418	
2.65808	
2.66418	
2.64282	
2.63519	
2.61993	
2.60468	
2.61993	
2.64435	
2.62299	
2.61841	
2.61078	
2.58636	
2.59247	
2.57568	
2.57721	
2.58636	
2.58331	
2.6123	
2.61993	
2.64587	
2.66724	
2.69012	
2.68097	
2.67181	
2.71301	
2.71301	
2.68402	
2.67792	
2.67792	
2.67639	
2.65656	
2.61993	
2.62756	
2.6535	
2.63672	
2.62451	
2.61688	
2.61688	
2.6062	
2.54211	
2.54059	
2.57416	
2.60468	
2.62756	
2.62909	
2.65198	
2.63824	
2.63214	
2.66571	
2.66113	
2.6825	
2.72064	
2.70081	
2.66113	
2.59857	
2.58026	
2.59552	
2.59552	
2.60315	
2.61688	
2.63824	
2.64435	
2.66876	
2.70996	
2.72675	
2.74811	
2.71759	
2.68402	
2.69928	
2.68707	
2.68402	
2.67181	
2.65198	
2.62146	
2.61993	
2.63672	
2.63824	
2.6413	
2.62299	
2.61841	
2.6123	
2.66724	
2.70386	
2.69623	
2.66571	
2.62909	
2.61841	
2.61993	
2.63977	
2.64893	
2.65198	
2.63824	
2.62756	
2.62909	
2.6062	
2.57263	
2.57721	
2.59857	
2.6413	
2.68097	
2.69928	
2.69012	
2.68555	
2.6474	
2.62756	
2.63214	
2.64587	
2.68097	
2.65656	
2.64435	
2.65808	
2.69623	
2.67792	
2.59247	
2.55737	
2.55737	
2.58331	
2.56042	
2.55737	
2.57263	
2.5528	
2.58942	
2.62451	
2.65656	
2.68402	
2.67029	
2.64893	
2.70233	
2.7298	
2.69775	
2.6947	
2.73438	
2.72675	
2.7298	
2.73285	
2.72522	
2.72522	
2.69623	
2.6825	
2.64435	
2.61383	
2.60468	
2.60162	
2.57721	
2.57721	
2.60773	
2.60925	
2.58636	
2.59552	
2.59857	
2.56195	
2.58179	
2.58636	
2.59399	
2.61688	
2.72675	
2.73438	
2.75421	
2.73132	
2.67334	
2.6123	
2.55585	
2.56195	
2.60468	
2.63214	
2.63977	
2.65961	
2.61383	
2.62756	
2.64435	
2.66418	
2.68402	
2.66571	
2.61993	
2.565	
2.58789	
2.59399	
2.61383	
2.61688	
2.63824	
2.65808	
2.71149	
2.73285	
2.73438	
2.72675	
2.71149	
2.73132	
2.71606	
2.73132	
2.70996	
2.68097	
2.66418	
2.66876	
2.68402	
2.68402	
2.64435	
2.61383	
2.57721	
2.55585	
2.55585	
2.55737	
2.57721	
2.56348	
2.56653	
2.57111	
2.6123	
2.73438	
2.75269	
2.74963	
2.73285	
2.67792	
2.64587	
2.62299	
2.58789	
2.57568	
2.565	
2.58026	
2.58484	
2.61078	
2.61688	
2.60773	
2.59094	
2.63214	
2.62146	
2.65961	
2.64435	
2.61078	
2.62756	
2.65961	
2.66571	
2.67944	
2.67944	
2.66418	
2.67792	
2.70538	
2.71149	
2.73285	
2.72064	
2.6886	
2.66876	
2.6474	
2.63367	
2.64435	
2.65503	
2.66571	
2.68097	
2.67639	
2.65198	
2.64282	
2.66724	
2.65503	
2.66724	
2.67029	
2.66724	
2.65656	
2.66724	
2.67639	
2.67334	
2.64893	
2.61688	
2.60925	
2.62299	
2.64435	
2.61841	
2.5589	
2.53143	
2.54822	
2.57874	
2.63214	
2.65198	
2.61993	
2.64587	
2.66571	
2.6886	
2.6947	
2.69623	
2.6535	
2.62909	
2.60162	
2.60315	
2.62146	
2.68555	
2.67639	
2.65808	
2.65808	
2.64282	
2.62604	
2.6413	
2.61993	
2.61688	
2.54822	
2.50397	
2.5177	
2.54669	
2.63214	
2.6825	
2.70538	
2.66571	
2.67181	
2.68402	
2.70844	
2.72522	
2.73743	
2.69928	
2.68097	
2.67487	
2.67334	
2.67487	
2.69012	
2.66113	
2.61536	
2.61993	
2.6535	
2.65045	
2.64587	
2.61688	
2.58789	
2.61688	
2.62909	
2.60315	
2.57874	
2.58179	
2.6062	
2.63519	
2.62909	
2.66418	
2.70233	
2.66571	
2.60468	
2.58179	
2.58636	
2.59094	
2.58179	
2.56042	
2.59705	
2.59552	
2.65503	
2.71454	
2.64893	
2.61383	
2.66571	
2.74048	
2.71149	
2.70996	
2.6947	
2.63519	
2.58942	
2.58331	
2.58026	
2.57874	
2.6062	
2.59705	
2.57874	
2.59247	
2.67029	
2.69775	
2.73285	
2.68097	
2.67181	
2.74353	
2.75726	
2.68555	
2.67029	
2.63977	
2.63367	
2.61993	
2.61688	
2.58942	
2.565	
2.59705	
2.59399	
2.59705	
2.59552	
2.59094	
2.6123	
2.63977	
2.67334	
2.66418	
2.66876	
2.71606	
2.71301	
2.6474	
2.59705	
2.60315	
2.60315	
2.61688	
2.59705	
2.58942	
2.53601	
2.52838	
2.5589	
2.5238	
2.4704	
2.50549	
2.52838	
2.54059	
2.58179	
2.63519	
2.60925	
2.67334	
2.66113	
2.71606	
2.79236	
2.73743	
2.6947	
2.68555	
2.64587	
2.6535	
2.6123	
2.60315	
2.55127	
2.50092	
2.47192	
2.52533	
2.58484	
2.57263	
2.57568	
2.59399	
2.63672	
2.67639	
2.67792	
2.6886	
2.74048	
2.72217	
2.75116	
2.7298	
2.69928	
2.62604	
2.59399	
2.61993	
2.61841	
2.61688	
2.63672	
2.66571	
2.59857	
2.55585	
2.55127	
2.55585	
2.53754	
2.50244	
2.49786	
2.51923	
2.54059	
2.54974	
2.565	
2.59399	
2.62299	
2.68555	
2.75726	
2.78168	
2.76794	
2.67334	
2.59552	
2.58179	
2.5589	
2.59247	
2.57568	
2.58636	
2.65808	
2.67029	
2.68555	
2.63672	
2.62451	
2.60773	
2.62451	
2.65198	
2.64435	
2.63519	
2.67792	
2.64435	
2.62604	
2.6062	
2.59705	
2.58636	
2.55737	
2.565	
2.58179	
2.61841	
2.64435	
2.65198	
2.5589	
2.53601	
2.51923	
2.54974	
2.5528	
2.56195	
2.60773	
2.61841	
2.60773	
2.6123	
2.62756	
2.62756	
2.63367	
2.65808	
2.63214	
2.63367	
2.57721	
2.61078	
2.61841	
2.6123	
2.62299	
2.66113	
2.68555	
2.68402	
2.64282	
2.61536	
2.58179	
2.56348	
2.58331	
2.60315	
2.5528	
2.54669	
2.54211	
2.54669	
2.57568	
2.54822	
2.60925	
2.59705	
2.62604	
2.62299	
2.66876	
2.60162	
2.64893	
2.61078	
2.61078	
2.58484	
2.60162	
2.57111	
2.54211	
2.5528	
2.53296	
2.53296	
2.57568	
2.67944	
2.61993	
2.57568	
2.6062	
2.58331	
2.60925	
2.62604	
2.62146	
2.61536	
2.57874	
2.54364	
2.56042	
2.6062	
2.66418	
2.62451	
2.60315	
2.59552	
2.60925	
2.63519	
2.59399	
2.56042	
2.5528	
2.5589	
2.52838	
2.48566	
2.47345	
2.44446	
2.45056	
2.5177	
2.51007	
2.5238	
2.53448	
2.59094	
2.64587	
2.64893	
2.65045	
2.63672	
2.64893	
2.64282	
2.63367	
2.63214	
2.61536	
2.57263	
2.5177	
2.48566	
2.48108	
2.49176	
2.51007	
2.57874	
2.64893	
2.65961	
2.67639	
2.6825	
2.64893	
2.59857	
2.60315	
2.58942	
2.62909	
2.64282	
2.60162	
2.59705	
2.62909	
2.6062	
2.55737	
2.56653	
2.57874	
2.57416	
2.58484	
2.66418	
2.66571	
2.61383	
2.58942	
2.53143	
2.54974	
2.56805	
2.57263	
2.565	
2.58026	
2.61383	
2.63977	
2.59094	
2.50244	
2.48413	
2.45819	
2.46124	
2.46124	
2.49329	
2.56042	
2.63977	
2.62756	
2.59705	
2.59705	
2.60162	
2.58942	
2.52991	
2.52686	
2.54974	
2.57263	
2.6123	
2.60925	
2.64282	
2.59552	
2.5528	
2.49481	
2.49786	
2.54211	
2.63214	
2.61383	
2.60925	
2.67334	
2.61688	
2.57416	
2.57263	
2.59705	
2.61536	
2.63519	
2.64282	
2.65045	
2.62756	
2.60162	
2.57874	
2.53448	
2.48108	
2.46887	
2.49634	
2.53601	
2.57263	
2.6062	
2.65808	
2.69012	
2.61841	
2.60773	
2.58026	
2.58179	
2.59399	
2.60162	
2.61383	
2.61841	
2.62146	
2.58026	
2.59094	
2.6123	
2.59247	
2.56805	
2.54211	
2.5177	
2.54669	
2.58942	
2.60773	
2.54364	
2.54669	
2.51923	
2.5238	
2.53296	
2.5528	
2.58484	
2.58789	
2.64282	
2.6123	
2.58942	
2.5589	
2.565	
2.56042	
2.57111	
2.60315	
2.61841	
2.60773	
2.58789	
2.60468	
2.58179	
2.5238	
2.47803	
2.48871	
2.51617	
2.54211	
2.49939	
2.48413	
2.49939	
2.5116	
2.5177	
2.53754	
2.54517	
2.6062	
2.63824	
2.65961	
2.61688	
2.62299	
2.66418	
2.61993	
2.565	
2.52075	
2.51923	
2.53754	
2.58331	
2.62146	
2.63824	
2.65503	
2.65198	
2.64282	
2.63672	
2.61993	
2.60773	
2.60773	
2.58636	
2.58026	
2.58331	
2.6062	
2.59094	
2.59094	
2.6123	
2.62756	
2.60162	
2.58331	
2.55737	
2.54669	
2.51617	
2.51465	
2.51312	
2.51007	
2.52075	
2.55737	
2.59705	
2.58331	
2.59247	
2.60315	
2.66571	
2.65198	
2.64435	
2.60162	
2.59399	
2.57721	
2.55585	
2.56348	
2.58636	
2.59247	
2.56348	
2.55585	
2.5177	
2.55432	
2.565	
2.57721	
2.62909	
2.62299	
2.59247	
2.61688	
2.64435	
2.63519	
2.63367	
2.59705	
2.56653	
2.49939	
2.49481	
2.52991	
2.55127	
2.6535	
2.71301	
2.67944	
2.66876	
2.65961	
2.62146	
2.56195	
2.54517	
2.56195	
2.61383	
2.63977	
2.61536	
2.56042	
2.59857	
2.59247	
2.60162	
2.62146	
2.60162	
2.60468	
2.60773	
2.61841	
2.57416	
2.54669	
2.54517	
2.50092	
2.49634	
2.51617	
2.57416	
2.64893	
2.63519	
2.60773	
2.67029	
2.65961	
2.6413	
2.63367	
2.62451	
2.63519	
2.60468	
2.59094	
2.59552	
2.57111	
2.57263	
2.58484	
2.57416	
2.53143	
2.50092	
2.52533	
2.52686	
2.57263	
2.61688	
2.58789	
2.63519	
2.62909	
2.65808	
2.6947	
2.69012	
2.67029	
2.68402	
2.70233	
2.64282	
2.61688	
2.57263	
2.4826	
2.49939	
2.51465	
2.53601	
2.59399	
2.59552	
2.58331	
2.57111	
2.58026	
2.63519	
2.61536	
2.58484	
2.58179	
2.57721	
2.54517	
2.48718	
2.59094	
2.58026	
2.6062	
2.69012	
2.70538	
2.65808	
2.58636	
2.57721	
2.57721	
2.54059	
2.55432	
2.59094	
2.6123	
2.59552	
2.63519	
2.62451	
2.64893	
2.67944	
2.75879	
2.70691	
2.6474	
2.58026	
2.58942	
2.61078	
2.61688	
2.55737	
2.60773	
2.68097	
2.76337	
2.70996	
2.59094	
2.47955	
2.47803	
2.52838	
2.56042	
2.56195	
2.5589	
2.5589	
2.56805	
2.56348	
2.56805	
2.57568	
2.61536	
2.65961	
2.6535	
2.65045	
2.64587	
2.6474	
2.63672	
2.61383	
2.58331	
2.59705	
2.57416	
2.58179	
2.58179	
2.55737	
2.56195	
2.58331	
2.61993	
2.61078	
2.60315	
2.57568	
2.5116	
2.51312	
2.54822	
2.58026	
2.62146	
2.66724	
2.68097	
2.64435	
2.63367	
2.58789	
2.55737	
2.54517	
2.61841	
2.60773	
2.59705	
2.6474	
2.74963	
2.78931	
2.73438	
2.66571	
2.57111	
2.5177	
2.54669	
2.58179	
2.54822	
2.50549	
2.50854	
2.50397	
2.51465	
2.54517	
2.56653	
2.56805	
2.58484	
2.6062	
2.6474	
2.71454	
2.70844	
2.66113	
2.65656	
2.65656	
2.6474	
2.6123	
2.56348	
2.54211	
2.54364	
2.53296	
2.50549	
2.53296	
2.53143	
2.55737	
2.56042	
2.56195	
2.5589	
2.55737	
2.56348	
2.58484	
2.63214	
2.72064	
2.85339	
2.93884	
2.96936	
3.00751	
2.93579	
2.71912	
2.51923	
2.32544	
2.2522	
2.32697	
2.41241	
2.48566	
2.52838	
2.54211	
2.53601	
2.54669	
2.54669	
2.55432	
2.5589	
2.55585	
2.56348	
2.58636	
2.61383	
2.64282	
2.66724	
2.70691	
2.70996	
2.75116	
2.83051	
2.86407	
2.96326	
3.0899	
3.1311	
2.99072	
2.5528	
2.26898	
2.22168	
2.27661	
2.33917	
2.39716	
2.43835	
2.45819	
2.47192	
2.4826	
2.50549	
2.51617	
2.52533	
2.54364	
2.58179	
2.64587	
2.70233	
2.74811	
2.76337	
2.73743	
2.66571	
2.59399	
2.49176	
2.43988	
2.42615	
2.46277	
2.49176	
2.52838	
2.54364	
2.54517	
2.56042	
2.56653	
2.59094	
2.6062	
2.60315	
2.55127	
2.54974	
2.57568	
2.59094	
2.57263	
2.58331	
2.66724	
2.76489	
2.77557	
2.74353	
2.70538	
2.71301	
2.64893	
2.54517	
2.48871	
2.52991	
2.58942	
2.63367	
2.66418	
2.58789	
2.4292	
2.33307	
2.38037	
2.43683	
2.46429	
2.48413	
2.48566	
2.51312	
2.5177	
2.5238	
2.56805	
2.58484	
2.59857	
2.59705	
2.62146	
2.64587	
2.64587	
2.65808	
2.6825	
2.72522	
2.67792	
2.52228	
2.49329	
2.57874	
2.67792	
2.68707	
2.67944	
2.64893	
2.68555	
2.7771	
2.68707	
2.52838	
2.48718	
2.52075	
2.58789	
2.57263	
2.48871	
2.52991	
2.61383	
2.62146	
2.57263	
2.53296	
2.47345	
2.45056	
2.4292	
2.49939	
2.60468	
2.72522	
2.79083	
2.90222	
2.92358	
2.96936	
3.01056	
3.08838	
3.06702	
2.76642	
2.32239	
2.1637	
2.23846	
2.33307	
2.35748	
2.36816	
2.35901	
2.38495	
2.41699	
2.45056	
2.40173	
2.26288	
2.33154	
2.47345	
2.59857	
2.70233	
2.78015	
2.80609	
2.79999	
2.67181	
2.6535	
2.70386	
2.78778	
2.86255	
2.771	
2.63977	
2.3468	
2.00806	
2.01416	
2.19421	
2.28882	
2.40173	
2.5589	
2.72827	
2.85645	
2.93732	
2.90833	
2.68707	
2.4826	
2.63824	
2.76184	
2.79846	
2.85492	
2.87476	
2.73285	
2.40784	
2.02789	
1.87988	
2.03552	
2.20947	
2.33002	
2.39716	
2.46429	
2.61383	
2.75726	
2.82288	
2.82288	
2.77252	
2.67487	
2.46277	
2.37885	
2.52228	
2.82898	
3.02124	
3.08685	
3.15094	
3.1723	
2.96478	
2.39105	
1.92261	
1.85242	
1.9928	
2.1347	
2.32391	
2.51007	
2.68707	
2.78778	
3.03497	
3.21045	
3.29132	
2.91443	
2.43225	
2.05383	
1.82953	
1.76086	
1.86005	
2.02637	
2.23846	
2.42462	
2.64435	
2.7771	
2.76031	
2.7771	
2.84576	
2.79694	
2.61078	
2.34375	
2.14081	
1.97296	
1.86615	
1.96838	
2.31476	
2.58484	
2.75879	
2.90833	
2.97089	
2.93732	
2.72675	
2.44751	
2.43835	
2.47803	
2.38647	
2.55432	
2.86713	
3.0304	
3.05634	
2.89001	
2.58484	
2.09351	
1.78986	
1.73798	
1.77612	
1.87683	
2.02332	
2.30408	
2.52228	
2.73285	
2.89459	
2.9007	
2.92206	
3.04108	
3.0426	
3.08838	
3.04565	
3.05634	
3.01514	
2.49481	
2.14386	
2.06909	
2.20337	
2.00043	
1.68457	
1.63269	
1.83716	
2.21863	
2.48718	
2.56195	
2.55432	
2.5528	
2.51007	
2.47498	
2.31018	
2.40326	
2.73743	
2.93579	
2.91443	
2.70844	
2.54364	
2.35138	
2.28882	
2.43683	
2.66724	
2.84882	
2.8595	
2.63977	
2.15607	
1.97296	
1.87836	
1.95313	
2.16827	
2.36053	
2.5589	
2.90375	
3.41644	
3.5965	
3.48663	
3.10974	
2.6474	
1.9928	
1.44653	
1.43433	
1.75171	
1.99127	
2.19269	
2.36664	
2.48566	
2.53754	
2.49329	
2.35138	
2.23999	
2.16064	
2.49176	
2.69775	
2.72675	
2.72064	
2.67639	
2.60162	
2.52228	
2.52686	
2.67334	
2.63519	
2.3941	
2.07672	
1.88599	
2.01416	
2.55432	
2.9007	
3.00446	
2.95258	
2.67639	
2.39868	
2.17438	
2.13776	
2.28729	
2.3819	
2.29797	
2.10114	
2.01569	
2.05994	
2.27356	
2.46429	
2.55585	
2.62146	
2.64282	
2.55432	
2.40936	
2.32697	
2.22473	
2.15302	
2.14233	
2.18964	
2.23846	
2.27356	
2.31323	
2.34222	
2.38037	
2.40173	
2.40479	
2.40326	
2.39716	
2.40021	
2.39868	
2.40326	
2.40173	
2.40631	
2.41089	
2.41241	
2.40326	
2.40326	
2.41699	
2.40936	
2.40173	
2.40479	
2.40784	
2.40173	
2.41699	
2.41089	
2.40173	
2.40173	
2.40173	
2.40173	
2.40173	
2.40479	
2.40326	
2.40631	
2.39716	
2.388	
2.38037	
2.38495	
2.3819	
2.38495	
2.37579	
2.39563	
2.41699	
2.40784	
2.40936	
2.41547	
2.43073	
2.43073	
2.43988	
2.44141	
2.44904	
2.44293	
2.41699	
2.37579	
2.36206	
2.33917	
2.35748	
2.41699	
2.40784	
2.40479	
2.40021	
2.40326	
2.40631	
2.41547	
2.40326	
2.40173	
2.40326	
2.40173	
2.40173	
2.40631	
2.40326	
2.42615	
2.42462	
2.41089	
2.40784	
2.40784	
2.41547	
2.42157	
2.43683	
2.44751	
2.43073	
2.40784	
2.41241	
2.39563	
2.37885	
2.37427	
2.38495	
2.38953	
2.40631	
2.41699	
2.40936	
2.42157	
2.41699	
2.40936	
2.41547	
2.41699	
2.41547	
2.41699	
2.41547	
2.41852	
2.42767	
2.42004	
2.41699	
2.41547	
2.42004	
2.41699	
2.42004	
2.4231	
2.4292	
2.44751	
2.39868	
2.41241	
2.40936	
2.43378	
2.43225	
2.40631	
2.41852	
2.4231	
2.41852	
2.42004	
2.41547	
2.40326	
2.41547	
2.43378	
2.45514	
2.45056	
2.43225	
2.41852	
2.3941	
2.40173	
2.43225	
2.43225	
2.44904	
2.45056	
2.45819	
2.45667	
2.43988	
2.4292	
2.42462	
2.43225	
2.46582	
2.53601	
2.59094	
2.62299	
2.57874	
2.53601	
2.49329	
2.3468	
2.23236	
2.23846	
2.34528	
2.40936	
2.41699	
2.41241	
2.41547	
2.42157	
2.4292	
2.43073	
2.44293	
2.45361	
2.45056	
2.44904	
2.46582	
2.46735	
2.46582	
2.45819	
2.45514	
2.46582	
2.46735	
2.4704	
2.46887	
2.4704	
2.47803	
2.48108	
2.47498	
2.46735	
2.4826	
2.50397	
2.54669	
2.59247	
2.5589	
2.55585	
2.57263	
2.56195	
2.53296	
2.44751	
2.40479	
2.43225	
2.43988	
2.44446	
2.47955	
2.49023	
2.49023	
2.50092	
2.50854	
2.50549	
2.50244	
2.50244	
2.50549	
2.50244	
2.49939	
2.49786	
2.49329	
2.48718	
2.47345	
2.43683	
2.42767	
2.40784	
2.45667	
2.50244	
2.50092	
2.54059	
2.58331	
2.55432	
2.56195	
2.56805	
2.51465	
2.49481	
2.50244	
2.5177	
2.50244	
2.50549	
2.50092	
2.50854	
2.51465	
2.50092	
2.50092	
2.49481	
2.49786	
2.49329	
2.49634	
2.51007	
2.51465	
2.49786	
2.49481	
2.48871	
2.48566	
2.47803	
2.48413	
2.45819	
2.44141	
2.4826	
2.50549	
2.52075	
2.52228	
2.50244	
2.46887	
2.45819	
2.46887	
2.47955	
2.49481	
2.50854	
2.51465	
2.5528	
2.5589	
2.55127	
2.55585	
2.55432	
2.54364	
2.51617	
2.48413	
2.4704	
2.47803	
2.48871	
2.49634	
2.52075	
2.52838	
2.53448	
2.52533	
2.5177	
2.50397	
2.52838	
2.5238	
2.52838	
2.54517	
2.565	
2.57721	
2.50397	
2.44446	
2.42004	
2.46124	
2.46277	
2.48871	
2.50092	
2.49939	
2.49939	
2.49939	
2.49481	
2.47955	
2.46735	
2.47345	
2.49023	
2.49329	
2.49023	
2.50092	
2.50549	
2.49329	
2.48413	
2.49023	
2.48718	
2.47803	
2.46429	
2.47955	
2.51312	
2.52075	
2.52228	
2.53754	
2.53296	
2.53143	
2.53448	
2.5238	
2.51465	
2.51312	
2.5116	
2.5116	
2.50092	
2.49939	
2.47955	
2.4704	
2.46735	
2.42004	
2.42004	
2.38037	
2.39716	
2.46124	
2.48566	
2.52838	
2.49939	
2.50244	
2.49176	
2.44904	
2.44446	
2.46582	
2.49786	
2.58179	
2.60925	
2.59094	
2.56348	
2.56195	
2.54059	
2.54059	
2.54822	
2.56805	
2.57111	
2.565	
2.59399	
2.64282	
2.62299	
2.62146	
2.6123	
2.58636	
2.565	
2.58789	
2.58179	
2.56348	
2.565	
2.59705	
2.57416	
2.53143	
2.51923	
2.5177	
2.52228	
2.52075	
2.52075	
2.52533	
2.53143	
2.52838	
2.55127	
2.57263	
2.58179	
2.58026	
2.58026	
2.58026	
2.55737	
2.53448	
2.49786	
2.49176	
2.49634	
2.49939	
2.50854	
2.52533	
2.50244	
2.51465	
2.51465	
2.51617	
2.51923	
2.5238	
2.5238	
2.52228	
2.51923	
2.52533	
2.53754	
2.53296	
2.52075	
2.52075	
2.51923	
2.52533	
2.5238	
2.5238	
2.5177	
2.54364	
2.56195	
2.53601	
2.52686	
2.52533	
2.49176	
2.48108	
2.46735	
2.45667	
2.45056	
2.44293	
2.42615	
2.4353	
2.46887	
2.5238	
2.56195	
2.58331	
2.56348	
2.61383	
2.63672	
2.63367	
2.64893	
2.63519	
2.62756	
2.61841	
2.60315	
2.58942	
2.57416	
2.56805	
2.56195	
2.565	
2.55432	
2.55585	
2.55432	
2.56348	
2.57568	
2.54974	
2.53296	
2.5238	
2.51312	
2.51465	
2.53143	
2.53448	
2.53754	
2.58026	
2.64587	
2.65503	
2.62604	
2.59857	
2.62146	
2.59247	
2.57721	
2.59247	
2.56195	
2.5528	
2.53754	
2.54211	
2.53601	
2.54364	
2.54364	
2.54822	
2.55432	
2.56348	
2.5589	
2.55737	
2.56195	
2.56348	
2.56348	
2.57568	
2.58179	
2.57721	
2.58026	
2.58179	
2.58179	
2.58026	
2.53601	
2.50854	
2.44751	
2.41547	
2.38037	
2.39716	
2.41699	
2.44751	
2.47498	
2.48413	
2.51617	
2.58942	
2.62451	
2.60162	
2.62909	
2.63214	
2.60925	
2.59094	
2.57263	
2.57416	
2.58789	
2.57874	
2.57721	
2.58179	
2.56805	
2.56805	
2.55737	
2.52838	
2.49786	
2.49329	
2.4704	
2.47955	
2.47955	
2.46887	
2.45972	
2.41547	
2.36359	
2.36664	
2.40326	
2.44293	
2.44751	
2.47803	
2.54669	
2.54669	
2.54974	
2.58026	
2.61383	
2.67181	
2.65961	
2.6474	
2.63367	
2.61841	
2.60925	
2.59705	
2.59094	
2.58636	
2.57721	
2.57416	
2.57111	
2.55737	
2.5589	
2.5589	
2.55737	
2.54211	
2.53601	
2.53601	
2.53601	
2.53296	
2.53296	
2.53448	
2.54059	
2.53754	
2.53143	
2.51312	
2.48413	
2.47955	
2.49939	
2.50549	
2.5238	
2.52533	
2.5238	
2.52075	
2.52991	
2.60162	
2.6123	
2.58636	
2.56348	
2.52991	
2.52991	
2.54364	
2.56653	
2.54669	
2.54669	
2.53296	
2.50549	
2.44293	
2.38495	
2.38037	
2.37579	
2.38495	
2.41699	
2.43225	
2.46429	
2.50397	
2.55737	
2.60773	
2.68402	
2.67639	
2.66418	
2.60468	
2.56653	
2.55737	
2.55585	
2.54211	
2.52686	
2.52075	
2.5238	
2.51923	
2.51312	
2.50244	
2.50397	
2.50092	
2.50092	
2.50854	
2.5116	
2.52075	
2.5177	
2.52228	
2.51923	
2.52838	
2.51312	
2.51465	
2.50397	
2.49634	
2.48871	
2.47955	
2.47803	
2.47955	
2.49023	
2.48566	
2.48566	
2.47345	
2.47803	
2.48108	
2.51007	
2.53296	
2.51007	
2.49786	
2.50092	
2.49634	
2.50244	
2.50854	
2.5116	
2.52075	
2.53143	
2.51923	
2.51007	
2.50549	
2.50549	
2.50244	
2.50397	
2.50854	
2.51312	
2.50092	
2.49939	
2.49939	
2.50549	
2.50244	
2.49939	
2.49786	
2.49634	
2.49786	
2.49634	
2.49481	
2.49329	
2.4826	
2.4704	
2.47498	
2.4826	
2.47803	
2.45972	
2.46277	
2.44141	
2.43988	
2.45514	
2.44446	
2.44904	
2.4826	
2.48871	
2.4826	
2.48566	
2.4704	
2.47345	
2.46735	
2.48718	
2.49481	
2.5116	
2.51007	
2.51007	
2.50549	
2.50092	
2.50549	
2.49176	
2.48566	
2.47498	
2.48108	
2.47955	
2.48871	
2.4826	
2.48871	
2.48108	
2.46429	
2.4704	
2.47803	
2.46277	
2.45972	
2.46124	
2.46582	
2.4704	
2.46277	
2.46582	
2.49634	
2.53143	
2.52838	
2.5177	
2.53296	
2.53143	
2.52533	
2.50854	
2.49939	
2.48871	
2.49481	
2.48413	
2.49786	
2.49176	
2.47498	
2.45514	
2.45972	
2.45972	
2.46429	
2.46887	
2.46277	
2.46582	
2.47498	
2.47955	
2.47498	
2.46277	
2.47192	
2.48871	
2.47955	
2.47498	
2.45361	
2.45361	
2.45361	
2.45514	
2.47345	
2.48413	
2.49634	
2.52686	
2.52533	
2.51923	
2.49023	
2.48108	
2.47498	
2.47803	
2.46429	
2.46124	
2.46582	
2.45056	
2.44293	
2.44446	
2.44751	
2.44141	
2.44141	
2.45361	
2.49939	
2.51923	
2.51465	
2.50092	
2.48566	
2.46735	
2.46735	
2.46735	
2.46735	
2.45361	
2.46429	
2.47345	
2.4826	
2.47498	
2.47192	
2.47192	
2.4704	
2.46277	
2.46124	
2.45972	
2.46124	
2.45972	
2.45056	
2.45514	
2.44904	
2.43988	
2.44751	
2.44446	
2.45209	
2.45056	
2.45361	
2.46124	
2.48108	
2.48566	
2.49023	
2.49939	
2.49481	
2.48871	
2.48718	
2.48718	
2.49023	
2.49023	
2.48718	
2.49939	
2.49481	
2.49176	
2.48413	
2.47498	
2.46124	
2.46582	
2.45209	
2.43683	
2.4353	
2.4353	
2.44141	
2.44904	
2.45514	
2.46735	
2.47803	
2.46124	
2.46429	
2.46735	
2.46429	
2.46429	
2.43378	
2.42004	
2.41547	
2.40173	
2.41699	
2.43378	
2.4704	
2.47955	
2.49176	
2.48413	
2.46735	
2.46887	
2.4826	
2.49176	
2.54211	
2.51312	
2.48566	
2.49786	
2.51465	
2.51465	
2.51007	
2.50854	
2.49634	
2.48718	
2.48718	
2.48566	
2.4704	
2.46887	
2.46582	
2.46429	
2.46735	
2.46124	
2.46735	
2.47803	
2.46887	
2.47498	
2.4704	
2.45667	
2.48566	
2.50092	
2.49939	
2.51617	
2.51617	
2.50244	
2.49329	
2.46277	
2.44141	
2.4292	
2.41699	
2.42157	
2.43225	
2.43835	
2.45361	
2.46887	
2.46277	
2.47803	
2.49023	
2.49481	
2.49786	
2.50397	
2.49023	
2.48718	
2.48718	
2.47955	
2.47498	
2.47345	
2.47803	
2.47498	
2.47192	
2.46735	
2.44751	
2.45056	
2.45209	
2.45667	
2.45819	
2.45514	
2.4353	
2.43835	
2.42462	
2.42615	
2.41852	
2.44293	
2.46887	
2.47498	
2.45667	
2.46124	
2.46124	
2.48108	
2.50549	
2.49939	
2.50092	
2.49634	
2.49481	
2.49329	
2.49786	
2.50244	
2.49634	
2.49176	
2.49176	
2.4826	
2.48108	
2.48718	
2.4826	
2.4826	
2.47955	
2.48108	
2.47955	
2.48108	
2.47498	
2.48718	
2.47803	
2.47803	
2.47803	
2.47498	
2.47345	
2.47345	
2.47803	
2.48108	
2.48108	
2.48108	
2.48108	
2.48108	
2.48413	
2.48108	
2.48871	
2.48718	
2.4826	
2.4826	
2.4826	
2.48108	
2.47192	
2.48108	
2.47803	
2.47498	
2.46277	
2.47498	
2.47498	
2.4826	
