2.0423188
2.0392688
2.0285888
2.0209588
2.0163788
2.0209588
2.0209588
2.0194388
2.0179088
2.0163788
2.0179088
2.0179088
2.0224888
2.0240088
2.0285888
2.0255388
2.0224888
2.0301188
2.0255388
2.0255388
2.0194388
2.0133288
2.0118088
2.0163788
2.0133288
2.0133288
2.0118088
2.0133288
2.0118088
2.0118088
2.0148588
2.0056988
2.0087488
2.0118088
2.0209588
2.0301188
2.0331688
2.0301188
2.0285888
2.0194388
2.0209588
2.0240088
2.0240088
2.0377488
2.0484288
2.0468988
2.0423188
2.0438488
2.0346888
2.0285888
2.0179088
2.0118088
2.0087488
1.9934988
1.9950188
1.9995988
1.9950188
2.0041788
2.0087488
2.0148588
2.0194388
2.0163788
2.0102788
2.0041788
2.0072288
2.0041788
2.0087488
2.0133288
2.0179088
2.0255388
2.0240088
2.0179088
2.0041788
2.0163788
2.0240088
2.0255388
2.0438488
2.0407988
2.0362188
2.0346888
2.0407988
2.0316388
2.0179088
1.9950188
1.9843388
1.9858688
1.9889188
1.9980688
2.0056988
2.0163788
2.0240088
2.0255388
2.0255388
2.0194388
2.0133288
2.0072288
2.0148588
2.0362188
2.0392688
2.0453788
2.0438488
2.0392688
2.0331688
2.0331688
2.0301188
2.0331688
2.0346888
2.0362188
2.0255388
2.0194388
2.0209588
2.0163788
2.0163788
2.0179088
2.0179088
2.0179088
2.0148588
2.0163788
2.0133288
2.0163788
2.0179088
2.0148588
2.0133288
2.0255388
2.0484288
2.0484288
2.0438488
2.0377488
2.0301188
2.0240088
2.0133288
2.0148588
2.0041788
1.9950188
1.9873888
1.9828088
2.0026488
2.0133288
2.0331688
2.0209588
2.0224888
2.0118088
2.0026488
2.0072288
2.0056988
2.0118088
2.0118088
2.0118088
2.0194388
2.0285888
2.0224888
2.0240088
2.0209588
2.0316388
2.0453788
2.0468988
2.0377488
2.0285888
2.0209588
2.0148588
2.0102788
2.0056988
2.0087488
2.0087488
2.0102788
2.0102788
2.0118088
2.0133288
2.0011188
1.9950188
1.9995988
2.0133288
2.0056988
2.0072288
2.0041788
2.0056988
2.0011188
2.0041788
2.0148588
2.0194388
2.0316388
2.0331688
2.0346888
2.0346888
2.0255388
2.0209588
2.0285888
2.0301188
2.0316388
2.0255388
2.0194388
2.0224888
2.0194388
2.0179088
2.0179088
2.0133288
2.0133288
2.0163788
2.0118088
2.0133288
2.0148588
2.0209588
2.0209588
2.0148588
2.0179088
2.0118088
2.0087488
2.0072288
2.0163788
2.0179088
2.0224888
2.0255388
2.0255388
2.0209588
2.0255388
2.0194388
2.0209588
2.0285888
2.0240088
2.0194388
2.0194388
2.0133288
2.0118088
2.0148588
2.0194388
2.0179088
2.0148588
2.0163788
2.0163788
2.0331688
2.0453788
2.0453788
2.0438488
2.0407988
2.0285888
2.0194388
2.0072288
2.0011188
1.9873888
1.9721288
1.9706088
1.9751788
1.9828088
1.9934988
2.0087488
2.0255388
2.0316388
2.0194388
2.0179088
2.0331688
2.0331688
2.0255388
2.0133288
2.0087488
1.9995988
1.9980688
1.9934988
1.9797588
1.9751788
1.9767088
1.9858688
1.9980688
2.0072288
2.0118088
2.0179088
2.0224888
2.0316388
2.0316388
2.0316388
2.0301188
2.0255388
2.0301188
2.0285888
2.0331688
2.0377488
2.0346888
2.0285888
2.0285888
2.0285888
2.0255388
2.0179088
2.0194388
2.0209588
2.0224888
2.0163788
2.0194388
2.0179088
2.0179088
2.0179088
2.0148588
2.0163788
2.0133288
2.0118088
2.0133288
2.0118088
2.0133288
2.0163788
2.0224888
2.0255388
2.0209588
2.0285888
2.0224888
2.0209588
2.0194388
2.0194388
2.0163788
2.0148588
2.0163788
2.0118088
2.0148588
2.0301188
2.0407988
2.0331688
2.0301188
2.0301188
2.0194388
2.0087488
2.0087488
1.9934988
1.9767088
1.9675588
1.9568688
1.9553488
1.9644988
1.9767088
1.9889188
2.0102788
2.0209588
2.0179088
2.0255388
2.0301188
2.0255388
2.0301188
2.0285888
2.0285888
2.0209588
2.0118088
2.0041788
2.0056988
2.0026488
1.9980688
1.9858688
1.9873888
1.9950188
2.0011188
2.0056988
2.0148588
2.0209588
2.0224888
2.0179088
2.0163788
2.0072288
1.9980688
1.9904388
1.9950188
1.9995988
2.0026488
2.0087488
2.0148588
2.0163788
2.0118088
2.0072288
2.0087488
2.0102788
2.0133288
2.0163788
2.0133288
2.0133288
2.0224888
2.0163788
2.0118088
2.0118088
2.0041788
2.0224888
2.0346888
2.0285888
2.0194388
2.0118088
2.0056988
1.9995988
1.9995988
1.9904388
1.9797588
1.9736588
1.9812888
1.9904388
1.9950188
1.9873888
1.9873888
1.9904388
1.9995988
1.9934988
1.9904388
1.9904388
1.9995988
2.0011188
1.9980688
2.0056988
2.0056988
1.9995988
2.0011188
2.0087488
2.0148588
2.0087488
2.0056988
2.0072288
2.0087488
2.0087488
2.0072288
2.0087488
2.0011188
2.0026488
2.0041788
1.9995988
2.0011188
1.9980688
1.9767088
1.9706088
1.9690788
1.9614488
1.9614488
1.9690788
1.9797588
1.9950188
2.0026488
2.0087488
2.0102788
2.0087488
2.0026488
2.0148588
2.0285888
2.0209588
2.0118088
2.0087488
2.0087488
2.0041788
1.9919688
1.9873888
1.9904388
1.9843388
1.9873888
1.9950188
1.9919688
1.9904388
1.9995988
2.0056988
2.0102788
2.0102788
2.0118088
2.0133288
2.0118088
2.0240088
2.0331688
2.0316388
2.0240088
2.0102788
2.0026488
1.9950188
1.9904388
1.9873888
1.9767088
1.9812888
1.9843388
1.9843388
1.9934988
1.9889188
1.9843388
1.9904388
1.9919688
1.9934988
1.9919688
1.9904388
1.9934988
1.9995988
1.9919688
1.9843388
1.9797588
1.9904388
1.9950188
1.9889188
1.9889188
1.9873888
1.9843388
1.9873888
1.9934988
1.9995988
2.0011188
1.9995988
1.9858688
1.9782388
1.9706088
1.9675588
1.9767088
1.9934988
2.0041788
2.0102788
2.0087488
2.0118088
2.0056988
2.0011188
1.9934988
2.0056988
2.0102788
2.0072288
1.9995988
1.9904388
1.9980688
1.9995988
1.9934988
1.9858688
1.9828088
1.9919688
2.0072288
2.0148588
2.0163788
2.0087488
2.0118088
2.0102788
1.9995988
1.9980688
1.9919688
1.9767088
1.9721288
1.9751788
1.9782388
1.9873888
1.9934988
1.9980688
2.0041788
1.9995988
1.9950188
1.9950188
1.9995988
2.0011188
1.9950188
1.9904388
1.9873888
1.9889188
1.9797588
1.9812888
1.9873888
1.9843388
1.9767088
1.9736588
1.9736588
1.9828088
1.9767088
1.9828088
1.9858688
1.9858688
1.9873888
1.9980688
2.0026488
2.0072288
2.0148588
2.0087488
2.0072288
2.0056988
2.0011188
1.9980688
1.9889188
1.9950188
1.9919688
1.9995988
2.0011188
1.9995988
1.9812888
1.9782388
1.9751788
1.9629788
1.9614488
1.9644988
1.9736588
1.9828088
1.9889188
1.9858688
1.9843388
1.9858688
1.9858688
1.9934988
2.0056988
1.9995988
2.0011188
2.0026488
2.0011188
2.0041788
1.9950188
1.9950188
2.0163788
2.0285888
2.0301188
2.0224888
2.0133288
1.9980688
1.9904388
1.9919688
1.9934988
1.9858688
1.9690788
1.9614488
1.9614488
1.9675588
1.9751788
1.9797588
1.9812888
1.9904388
1.9843388
1.9828088
1.9858688
1.9797588
1.9767088
1.9843388
1.9889188
1.9904388
1.9934988
1.9843388
1.9828088
1.9873888
1.9843388
1.9873888
1.9873888
1.9919688
1.9873888
1.9889188
1.9934988
1.9919688
1.9919688
1.9904388
1.9889188
1.9873888
1.9889188
1.9812888
1.9736588
1.9706088
1.9706088
1.9797588
1.9751788
1.9644988
1.9614488
1.9706088
1.9706088
1.9721288
1.9721288
1.9751788
1.9843388
2.0056988
2.0056988
1.9950188
1.9919688
1.9843388
1.9889188
1.9995988
1.9919688
1.9889188
1.9767088
1.9706088
1.9736588
1.9751788
1.9782388
1.9751788
1.9812888
1.9889188
1.9919688
2.0026488
2.0179088
2.0179088
2.0133288
2.0087488
1.9995988
1.9904388
1.9843388
1.9736588
1.9629788
1.9568688
1.9553488
1.9492388
1.9492388
1.9599288
1.9690788
1.9889188
2.0041788
1.9995988
1.9889188
1.9812888
1.9873888
1.9812888
1.9767088
1.9721288
1.9721288
1.9706088
1.9721288
1.9751788
1.9782388
1.9812888
1.9782388
1.9797588
1.9812888
1.9812888
1.9782388
1.9751788
1.9690788
1.9675588
1.9629788
1.9690788
1.9690788
1.9706088
1.9751788
1.9782388
1.9644988
1.9599288
1.9522988
1.9553488
1.9553488
1.9690788
1.9904388
2.0285888
2.0331688
2.0331688
2.0148588
2.0011188
1.9812888
1.9828088
1.9858688
1.9782388
1.9629788
1.9492388
1.9446688
1.9461888
1.9568688
1.9599288
1.9675588
1.9873888
1.9843388
1.9843388
1.9873888
1.9873888
1.9843388
1.9828088
1.9828088
1.9812888
1.9873888
1.9812888
1.9797588
1.9797588
1.9828088
1.9751788
1.9706088
1.9706088
1.9690788
1.9690788
1.9706088
1.9751788
1.9797588
1.9828088
1.9797588
1.9767088
1.9751788
1.9736588
1.9751788
1.9767088
1.9690788
1.9644988
1.9568688
1.9599288
1.9614488
1.9583988
1.9690788
1.9782388
1.9751788
1.9767088
1.9721288
1.9706088
1.9644988
1.9629788
1.9583988
1.9568688
1.9675588
1.9721288
1.9751788
1.9736588
1.9721288
1.9736588
1.9675588
1.9568688
1.9522988
1.9751788
1.9721288
1.9736588
1.9767088
1.9751788
1.9858688
1.9889188
1.9843388
1.9782388
1.9736588
1.9706088
1.9721288
1.9751788
1.9736588
1.9736588
1.9690788
1.9889188
2.0011188
2.0072288
1.9980688
1.9889188
1.9812888
1.9736588
1.9629788
1.9568688
1.9416188
1.9477188
1.9461888
1.9446688
1.9538188
1.9629788
1.9736588
1.9797588
1.9889188
1.9782388
1.9690788
1.9599288
1.9538188
1.9507688
1.9477188
1.9461888
1.9477188
1.9553488
1.9629788
1.9675588
1.9629788
1.9568688
1.9553488
1.9629788
1.9767088
1.9828088
1.9812888
1.9812888
1.9797588
1.9690788
1.9721288
1.9767088
1.9797588
1.9858688
1.9828088
1.9812888
1.9721288
1.9675588
1.9599288
1.9568688
1.9568688
1.9614488
1.9690788
1.9706088
1.9782388
1.9721288
1.9690788
1.9644988
1.9614488
1.9614488
1.9583988
1.9553488
1.9553488
1.9553488
1.9507688
1.9507688
1.9431388
1.9400888
1.9324588
1.9217788
1.9217788
1.9278788
1.9400888
1.9583988
1.9644988
1.9721288
1.9919688
2.0118088
2.0087488
2.0041788
1.9934988
1.9828088
1.9828088
1.9736588
1.9599288
1.9492388
1.9370388
1.9309288
1.9309288
1.9324588
1.9416188
1.9507688
1.9538188
1.9538188
1.9522988
1.9568688
1.9599288
1.9644988
1.9614488
1.9629788
1.9675588
1.9690788
1.9675588
1.9690788
1.9583988
1.9583988
1.9553488
1.9599288
1.9629788
1.9675588
1.9629788
1.9629788
1.9553488
1.9538188
1.9507688
1.9446688
1.9431388
1.9492388
1.9568688
1.9629788
1.9538188
1.9553488
1.9507688
1.9553488
1.9492388
1.9477188
1.9461888
1.9507688
1.9629788
1.9690788
1.9690788
1.9675588
1.9629788
1.9568688
1.9629788
1.9599288
1.9568688
1.9522988
1.9568688
1.9629788
1.9614488
1.9477188
1.9461888
1.9171988
1.9126188
1.9141488
1.9171988
1.9217788
1.9370388
1.9477188
1.9644988
1.9736588
1.9767088
1.9721288
1.9843388
1.9797588
1.9828088
1.9858688
1.9736588
1.9629788
1.9629788
1.9614488
1.9538188
1.9400888
1.9263588
1.9232988
1.9232988
1.9278788
1.9522988
1.9629788
1.9782388
1.9690788
1.9568688
1.9568688
1.9522988
1.9446688
1.9416188
1.9370388
1.9370388
1.9355088
1.9446688
1.9477188
1.9538188
1.9614488
1.9690788
1.9782388
1.9751788
1.9721288
1.9644988
1.9568688
1.9538188
1.9507688
1.9583988
1.9614488
1.9522988
1.9522988
1.9599288
1.9583988
1.9568688
1.9522988
1.9522988
1.9416188
1.9232988
1.9156788
1.9080488
1.9049888
1.9217788
1.9309288
1.9492388
1.9675588
1.9934988
2.0026488
2.0056988
1.9995988
2.0041788
2.0087488
2.0011188
1.9919688
1.9675588
1.9446688
1.9324588
1.9416188
1.9431388
1.9431388
1.9538188
1.9507688
1.9568688
1.9599288
1.9553488
1.9522988
1.9583988
1.9599288
1.9614488
1.9599288
1.9644988
1.9614488
1.9568688
1.9522988
1.9507688
1.9477188
1.9461888
1.9477188
1.9461888
1.9492388
1.9538188
1.9507688
1.9507688
1.9492388
1.9461888
1.9492388
1.9461888
1.9507688
1.9461888
1.9446688
1.9522988
1.9599288
1.9629788
1.9644988
1.9629788
1.9614488
1.9614488
1.9599288
1.9629788
1.9583988
1.9583988
1.9614488
1.9644988
1.9644988
1.9690788
1.9690788
1.9644988
1.9599288
1.9583988
1.9614488
1.9644988
1.9629788
1.9629788
1.9614488
1.9599288
1.9614488
1.9599288
1.9568688
1.9568688
1.9568688
1.9568688
1.9477188
1.9309288
1.9278788
1.9324588
1.9355088
1.9400888
1.9522988
1.9767088
2.0102788
2.0133288
1.9995988
1.9828088
1.9721288
1.9675588
1.9675588
1.9644988
1.9599288
1.9507688
1.9431388
1.9477188
1.9477188
1.9538188
1.9599288
1.9736588
1.9843388
1.9751788
1.9721288
1.9706088
1.9706088
1.9675588
1.9629788
1.9644988
1.9690788
1.9675588
1.9675588
1.9614488
1.9568688
1.9583988
1.9629788
1.9644988
1.9629788
1.9675588
1.9721288
1.9721288
1.9767088
1.9690788
1.9629788
1.9706088
1.9706088
1.9690788
1.9736588
1.9690788
1.9706088
1.9721288
1.9675588
1.9706088
1.9706088
1.9721288
1.9797588
1.9812888
1.9583988
1.9522988
1.9553488
1.9538188
1.9583988
1.9644988
1.9644988
1.9736588
1.9706088
1.9675588
1.9553488
1.9477188
1.9461888
1.9812888
2.0087488
2.0056988
2.0041788
2.0026488
1.9889188
1.9767088
1.9690788
1.9629788
1.9553488
1.9492388
1.9446688
1.9446688
1.9492388
1.9492388
1.9599288
1.9751788
1.9706088
1.9690788
1.9690788
1.9629788
1.9629788
1.9614488
1.9629788
1.9629788
1.9644988
1.9690788
1.9706088
1.9690788
1.9644988
1.9629788
1.9629788
1.9629788
1.9629788
1.9614488
1.9553488
1.9522988
1.9446688
1.9446688
1.9461888
1.9461888
1.9507688
1.9568688
1.9522988
1.9492388
1.9477188
1.9522988
1.9583988
1.9553488
1.9568688
1.9599288
1.9568688
1.9690788
1.9675588
1.9568688
1.9614488
1.9675588
1.9644988
1.9538188
1.9477188
1.9461888
1.9431388
1.9416188
1.9507688
1.9599288
1.9782388
1.9828088
1.9889188
1.9797588
1.9736588
1.9721288
1.9721288
1.9797588
1.9736588
1.9736588
1.9721288
1.9721288
1.9721288
1.9690788
1.9644988
1.9690788
1.9553488
1.9644988
1.9736588
1.9782388
1.9767088
1.9721288
1.9706088
1.9599288
1.9629788
1.9553488
1.9416188
1.9263588
1.9232988
1.9278788
1.9416188
1.9446688
1.9431388
1.9599288
1.9599288
1.9568688
1.9599288
1.9599288
1.9553488
1.9553488
1.9568688
1.9644988
1.9599288
1.9553488
1.9629788
1.9599288
1.9492388
1.9477188
1.9492388
1.9568688
1.9675588
1.9629788
1.9583988
1.9583988
1.9614488
1.9583988
1.9553488
1.9629788
1.9721288
1.9736588
1.9599288
1.9538188
1.9507688
1.9370388
1.9217788
1.9263588
1.9385588
1.9446688
1.9553488
1.9583988
1.9553488
1.9522988
1.9492388
1.9629788
1.9706088
1.9706088
1.9599288
1.9446688
1.9461888
1.9461888
1.9461888
1.9522988
1.9538188
1.9706088
1.9904388
1.9950188
1.9904388
1.9812888
1.9706088
1.9690788
1.9767088
1.9721288
1.9538188
1.9400888
1.9400888
1.9385588
1.9400888
1.9446688
1.9446688
1.9599288
1.9675588
1.9629788
1.9614488
1.9614488
1.9644988
1.9614488
1.9644988
1.9583988
1.9553488
1.9522988
1.9492388
1.9461888
1.9461888
1.9461888
1.9477188
1.9522988
1.9507688
1.9477188
1.9507688
1.9492388
1.9477188
1.9278788
1.9400888
1.9416188
1.9461888
1.9446688
1.9461888
1.9583988
1.9690788
1.9721288
1.9614488
1.9507688
1.9385588
1.9294088
1.9431388
1.9583988
1.9538188
1.9568688
1.9461888
1.9477188
1.9553488
1.9675588
1.9706088
1.9736588
1.9721288
1.9751788
1.9767088
1.9919688
2.0118088
2.0102788
2.0011188
1.9858688
1.9797588
1.9751788
1.9690788
1.9568688
1.9431388
1.9278788
1.9217788
1.9156788
1.9202488
1.9202488
1.9263588
1.9370388
1.9492388
1.9400888
1.9309288
1.9400888
1.9400888
1.9492388
1.9477188
1.9553488
1.9599288
1.9599288
1.9629788
1.9583988
1.9507688
1.9583988
1.9522988
1.9629788
1.9721288
1.9629788
1.9568688
1.9522988
1.9507688
1.9507688
1.9446688
1.9446688
1.9416188
1.9568688
1.9721288
1.9736588
1.9568688
1.9538188
1.9568688
1.9538188
1.9522988
1.9522988
1.9507688
1.9507688
1.9522988
1.9492388
1.9477188
1.9492388
1.9492388
1.9461888
1.9431388
1.9446688
1.9385588
1.9400888
1.9385588
1.9507688
1.9553488
1.9416188
1.9309288
1.9248288
1.9217788
1.9294088
1.9385588
1.9446688
1.9583988
1.9690788
1.9767088
1.9675588
1.9583988
1.9461888
1.9416188
1.9461888
1.9370388
1.9202488
1.9110988
1.9110988
1.9202488
1.9416188
1.9522988
1.9583988
1.9721288
1.9736588
1.9690788
1.9706088
1.9629788
1.9583988
1.9599288
1.9568688
1.9568688
1.9568688
1.9583988
1.9538188
1.9568688
1.9553488
1.9522988
1.9522988
1.9477188
1.9477188
1.9507688
1.9477188
1.9461888
1.9522988
1.9507688
1.9507688
1.9446688
1.9522988
1.9477188
1.9416188
1.9355088
1.9324588
1.9370388
1.9355088
1.9370388
1.9385588
1.9370388
1.9431388
1.9431388
1.9416188
1.9355088
1.9278788
1.9263588
1.9416188
1.9431388
1.9461888
1.9446688
1.9400888
1.9492388
1.9538188
1.9629788
1.9614488
1.9553488
1.9538188
1.9583988
1.9522988
1.9477188
1.9477188
1.9446688
1.9446688
1.9416188
1.9385588
1.9385588
1.9370388
1.9324588
1.9202488
1.9141488
1.9126188
1.9156788
1.9156788
1.9355088
1.9400888
1.9431388
1.9507688
1.9522988
1.9553488
1.9568688
1.9522988
1.9400888
1.9248288
1.9187288
1.9156788
1.9263588
1.9492388
1.9553488
1.9507688
1.9583988
1.9568688
1.9553488
1.9522988
1.9538188
1.9461888
1.9477188
1.9416188
1.9431388
1.9461888
1.9400888
1.9370388
1.9385588
1.9385588
1.9370388
1.9370388
1.9355088
1.9355088
1.9370388
1.9294088
1.9355088
1.9355088
1.9431388
1.9431388
1.9477188
1.9461888
1.9416188
1.9416188
1.9355088
1.9309288
1.9400888
1.9385588
1.9416188
1.9416188
1.9492388
1.9492388
1.9492388
1.9522988
1.9614488
1.9522988
1.9507688
1.9492388
1.9477188
1.9492388
1.9446688
1.9431388
1.9400888
1.9400888
1.9324588
1.9309288
1.9324588
1.9309288
1.9370388
1.9416188
1.9507688
1.9492388
1.9492388
1.9461888
1.9507688
1.9538188
1.9492388
1.9431388
1.9370388
1.9294088
1.9355088
1.9355088
1.9263588
1.9294088
1.9355088
1.9355088
1.9385588
1.9385588
1.9553488
1.9629788
1.9431388
1.9202488
1.9171988
1.9126188
1.9049888
1.9141488
1.9110988
1.9110988
1.9065188
1.9110988
1.9217788
1.9156788
1.9126188
1.9217788
1.9324588
1.9385588
1.9294088
1.9232988
1.9248288
1.9248288
1.9309288
1.9355088
1.9324588
1.9385588
1.9400888
1.9400888
1.9400888
1.9400888
1.9583988
1.9675588
1.9644988
1.9553488
1.9507688
1.9553488
1.9522988
1.9553488
1.9583988
1.9614488
1.9522988
1.9385588
1.9370388
1.9324588
1.9355088
1.9477188
1.9416188
1.9263588
1.9202488
1.9217788
1.9217788
1.9217788
1.9217788
1.9232988
1.9294088
1.9294088
1.9232988
1.9309288
1.9400888
1.9400888
1.9446688
1.9583988
1.9614488
1.9599288
1.9553488
1.9477188
1.9431388
1.9232988
1.9080488
1.9202488
1.9294088
1.9248288
1.9217788
1.9278788
1.9385588
1.9446688
1.9416188
1.9294088
1.9217788
1.9080488
1.9049888
1.9095688
1.9141488
1.9126188
1.9049888
1.9080488
1.9049888
1.9049888
1.9171988
1.9400888
1.9568688
1.9614488
1.9599288
1.9721288
1.9690788
1.9629788
1.9507688
1.9446688
1.9400888
1.9461888
1.9461888
1.9400888
1.9416188
1.9385588
1.9278788
1.9248288
1.9355088
1.9278788
1.9294088
1.9294088
1.9309288
1.9355088
1.9431388
1.9477188
1.9492388
1.9538188
1.9522988
1.9477188
1.9446688
1.9431388
1.9400888
1.9370388
1.9400888
1.9416188
1.9370388
1.9370388
1.9355088
1.9278788
1.9263588
1.9294088
1.9309288
1.9355088
1.9477188
1.9538188
1.9538188
1.9522988
1.9492388
1.9278788
1.9080488
1.9004188
1.8973688
1.9141488
1.9263588
1.9263588
1.9400888
1.9446688
1.9461888
1.9370388
1.9431388
1.9263588
1.9171988
1.9141488
1.9126188
1.9126188
1.9171988
1.9232988
1.9324588
1.9431388
1.9385588
1.9278788
1.9232988
1.9263588
1.9187288
1.9187288
1.9232988
1.9278788
1.9309288
1.9309288
1.9324588
1.9294088
1.9324588
1.9263588
1.9278788
1.9355088
1.9385588
1.9370388
1.9355088
1.9400888
1.9400888
1.9385588
1.9461888
1.9355088
1.9309288
1.9294088
1.9263588
1.9294088
1.9355088
1.9385588
1.9431388
1.9446688
1.9492388
1.9461888
1.9446688
1.9446688
1.9492388
1.9446688
1.9446688
1.9370388
1.9355088
1.9355088
1.9309288
1.9309288
1.9278788
1.9324588
1.9248288
1.9217788
1.9263588
1.9202488
1.9171988
1.9004188
1.8927888
1.8866788
1.8912588
1.9156788
1.9461888
1.9583988
1.9553488
1.9477188
1.9400888
1.9355088
1.9324588
1.9110988
1.8958388
1.8958388
1.8866788
1.8927888
1.9156788
1.9278788
1.9355088
1.9568688
1.9522988
1.9477188
1.9446688
1.9370388
1.9294088
1.9263588
1.9294088
1.9355088
1.9370388
1.9355088
1.9324588
1.9294088
1.9263588
1.9232988
1.9217788
1.9217788
1.9232988
1.9248288
1.9263588
1.9278788
1.9278788
1.9202488
1.9217788
1.9217788
1.9171988
1.9126188
1.9110988
1.9126188
1.9141488
1.9202488
1.9171988
1.9217788
1.9202488
1.9202488
1.9187288
1.9110988
1.9095688
1.9080488
1.9065188
1.9095688
1.9156788
1.9232988
1.9278788
1.9248288
1.9248288
1.9263588
1.9324588
1.9309288
1.9187288
1.9141488
1.9110988
1.9141488
1.9141488
1.9141488
1.9187288
1.9202488
1.9263588
1.9080488
1.8958388
1.8897388
1.8836288
1.8912588
1.9126188
1.9431388
1.9446688
1.9477188
1.9431388
1.9385588
1.9248288
1.9171988
1.9080488
1.9065188
1.8927888
1.8790488
1.8805788
1.8897388
1.9049888
1.9126188
1.9263588
1.9324588
1.9202488
1.9126188
1.9126188
1.9095688
1.9141488
1.9171988
1.9171988
1.9202488
1.9232988
1.9217788
1.9217788
1.9171988
1.9171988
1.9110988
1.9141488
1.9156788
1.9171988
1.9141488
1.9110988
1.9080488
1.9080488
1.9049888
1.9080488
1.9080488
1.9095688
1.9141488
1.9141488
1.9187288
1.9080488
1.9019388
1.9004188
1.9019388
1.9080488
1.9095688
1.9217788
1.9171988
1.9156788
1.9095688
1.9095688
1.9019388
1.8912588
1.8912588
1.8927888
1.9004188
1.8988888
1.8988888
1.9065188
1.9126188
1.9171988
1.9141488
1.9141488
1.9156788
1.9187288
1.9217788
1.9248288
1.9278788
1.9248288
1.9187288
1.9156788
1.9049888
1.9019388
1.9126188
1.9110988
1.9126188
1.9141488
1.9141488
1.9049888
1.9019388
1.8988888
1.9065188
1.9217788
1.9187288
1.9141488
1.9110988
1.9095688
1.9110988
1.9095688
1.9095688
1.9095688
1.8912588
1.8912588
1.8973688
1.9171988
1.9355088
1.9446688
1.9461888
1.9538188
1.9431388
1.9370388
1.9171988
1.8988888
1.8836288
1.8698988
1.8714288
1.8653188
1.8668488
1.8882088
1.8943088
1.9019388
1.8988888
1.8927888
1.8958388
1.8912588
1.8988888
1.9095688
1.9187288
1.9202488
1.9156788
1.9095688
1.9110988
1.9110988
1.9080488
1.9019388
1.9080488
1.9110988
1.9110988
1.9095688
1.9095688
1.8988888
1.9019388
1.9004188
1.8973688
1.8943088
1.8882088
1.8836288
1.8851588
1.8790488
1.8805788
1.8851588
1.8866788
1.8912588
1.8943088
1.8988888
1.8988888
1.9004188
1.9049888
1.8988888
1.8943088
1.8912588
1.9095688
1.9263588
1.9324588
1.9324588
1.9232988
1.9187288
1.9217788
1.9217788
1.9202488
1.9187288
1.9187288
1.9126188
1.9049888
1.8988888
1.8973688
1.8943088
1.8973688
1.8882088
1.8714288
1.8714288
1.8668488
1.8683688
1.8698988
1.8943088
1.9065188
1.9110988
1.9324588
1.9461888
1.9461888
1.9400888
1.9416188
1.9385588
1.9278788
1.9232988
1.9004188
1.8866788
1.8775288
1.8698988
1.8744788
1.8775288
1.8759988
1.8744788
1.8912588
1.8958388
1.8973688
1.8988888
1.9049888
1.9126188
1.9110988
1.9095688
1.9065188
1.9049888
1.8988888
1.8973688
1.9004188
1.9095688
1.9080488
1.9065188
1.9080488
1.9110988
1.9095688
1.9080488
1.8958388
1.8988888
1.9004188
1.9110988
1.9126188
1.9065188
1.8973688
1.8973688
1.9065188
1.9095688
1.9049888
1.9126188
1.9110988
1.9095688
1.9110988
1.9141488
1.9110988
1.9080488
1.9095688
1.9080488
1.8988888
1.8927888
1.8866788
1.8836288
1.8866788
1.9004188
1.9126188
1.9171988
1.9004188
1.8851588
1.8851588
1.8866788
1.8866788
1.8943088
1.9095688
1.8927888
1.8821088
1.8775288
1.8805788
1.8775288
1.8866788
1.8943088
1.9095688
1.9080488
1.9248288
1.9477188
1.9416188
1.9217788
1.9187288
1.9202488
1.9171988
1.9156788
1.9080488
1.9004188
1.8927888
1.8836288
1.8698988
1.8805788
1.8851588
1.8912588
1.9004188
1.9110988
1.9049888
1.8973688
1.8973688
1.8958388
1.8943088
1.8927888
1.8943088
1.8988888
1.8882088
1.8836288
1.8821088
1.8790488
1.8866788
1.8882088
1.8927888
1.8927888
1.8943088
1.8897388
1.9004188
1.9049888
1.8988888
1.8943088
1.8988888
1.9065188
1.9171988
1.9156788
1.9156788
1.9110988
1.8988888
1.9019388
1.9004188
1.8958388
1.8943088
1.9004188
1.9080488
1.9095688
1.9049888
1.9080488
1.9019388
1.8973688
1.8973688
1.8943088
1.8882088
1.8851588
1.8805788
1.8790488
1.8821088
1.8836288
1.8897388
1.8775288
1.8744788
1.8714288
1.8759988
1.8836288
1.8943088
1.8958388
1.9126188
1.9110988
1.9080488
1.9080488
1.9049888
1.8973688
1.9019388
1.9141488
1.9080488
1.9049888
1.8973688
1.8943088
1.9171988
1.9263588
1.9294088
1.9263588
1.9156788
1.9080488
1.8943088
1.8897388
1.8821088
1.8775288
1.8698988
1.8744788
1.8851588
1.8866788
1.8988888
1.9049888
1.9110988
1.9202488
1.9095688
1.9049888
1.9049888
1.8958388
1.8988888
1.9004188
1.9019388
1.9019388
1.8988888
1.8988888
1.8943088
1.8958388
1.8973688
1.8912588
1.8866788
1.8973688
1.9065188
1.9019388
1.8943088
1.8882088
1.8943088
1.8973688
1.8897388
1.8897388
1.8821088
1.8759988
1.8637988
1.8668488
1.8851588
1.8973688
1.9110988
1.9263588
1.9278788
1.9171988
1.9095688
1.8973688
1.9065188
1.9141488
1.9156788
1.9156788
1.9110988
1.9019388
1.8988888
1.9049888
1.8988888
1.8775288
1.8668488
1.8698988
1.8714288
1.8836288
1.8943088
1.9004188
1.9065188
1.9141488
1.9156788
1.9065188
1.9019388
1.8988888
1.9080488
1.9019388
1.9019388
1.9019388
1.8973688
1.8943088
1.8897388
1.8882088
1.9004188
1.9217788
1.9171988
1.9065188
1.9049888
1.9141488
1.9126188
1.9065188
1.8958388
1.8821088
1.8637988
1.8622688
1.8790488
1.8805788
1.8866788
1.8927888
1.9004188
1.9019388
1.8897388
1.8897388
1.8958388
1.9080488
1.9080488
1.9019388
1.9004188
1.9004188
1.9004188
1.9049888
1.9004188
1.8958388
1.8927888
1.8927888
1.8912588
1.8927888
1.8927888
1.8866788
1.8866788
1.8836288
1.8821088
1.8805788
1.8851588
1.8836288
1.8805788
1.8805788
1.8805788
1.8866788
1.9004188
1.9065188
1.8943088
1.8836288
1.8851588
1.8851588
1.8851588
1.8912588
1.8973688
1.9049888
1.9095688
1.9065188
1.9065188
1.8912588
1.8958388
1.8973688
1.8927888
1.8912588
1.8851588
1.8851588
1.8851588
1.8912588
1.8836288
1.8790488
1.8866788
1.8912588
1.8943088
1.8943088
1.8912588
1.8882088
1.9065188
1.9202488
1.9217788
1.9095688
1.9019388
1.9065188
1.9065188
1.8988888
1.8912588
1.8836288
1.8775288
1.8805788
1.8821088
1.8912588
1.8927888
1.8897388
1.8958388
1.8958388
1.9019388
1.9019388
1.8973688
1.8897388
1.8836288
1.8912588
1.9049888
1.9080488
1.9049888
1.8943088
1.8958388
1.8927888
1.8988888
1.9019388
1.8927888
1.8836288
1.8607388
1.8515888
1.8515888
1.8546388
1.8561688
1.8637988
1.8775288
1.8821088
1.8836288
1.8927888
1.8988888
1.9019388
1.9049888
1.9110988
1.9171988
1.9049888
1.8958388
1.8912588
1.8790488
1.8683688
1.8698988
1.8821088
1.8836288
1.8851588
1.9049888
1.9156788
1.9187288
1.9294088
1.9232988
1.9232988
1.9141488
1.9049888
1.8927888
1.8927888
1.8912588
1.8897388
1.8927888
1.8988888
1.9065188
1.8988888
1.8988888
1.9080488
1.8973688
1.8912588
1.8958388
1.9004188
1.8988888
1.8988888
1.8927888
1.8958388
1.9095688
1.9141488
1.9232988
1.9202488
1.9156788
1.9110988
1.9019388
1.9049888
1.8912588
1.8821088
1.8744788
1.8668488
1.8393788
1.8454888
1.8485388
1.8622688
1.8698988
1.8805788
1.8882088
1.8943088
1.8943088
1.8866788
1.8897388
1.8912588
1.8866788
1.8973688
1.9049888
1.9080488
1.9004188
1.8958388
1.8943088
1.8866788
1.8927888
1.8973688
1.9095688
1.9141488
1.9171988
1.9141488
1.9080488
1.9065188
1.9141488
1.9171988
1.9110988
1.8988888
1.8973688
1.9049888
1.9126188
1.9110988
1.9141488
1.9141488
1.8988888
1.8988888
1.8958388
1.8851588
1.8866788
1.9049888
1.9263588
1.9294088
1.9232988
1.9156788
1.9049888
1.8927888
1.8912588
1.8882088
1.8790488
1.8668488
1.8561688
1.8393788
1.8500588
1.8576888
1.8698988
1.8897388
1.9004188
1.9095688
1.9110988
1.9080488
1.8958388
1.8851588
1.8744788
1.8637988
1.8821088
1.9019388
1.9080488
1.9065188
1.9004188
1.9080488
1.9019388
1.9065188
1.9049888
1.9080488
1.9171988
1.9126188
1.9110988
1.9004188
1.9019388
1.9019388
1.9049888
1.9049888
1.9019388
1.9049888
1.8988888
1.8866788
1.8790488
1.8805788
1.8912588
1.9004188
1.9110988
1.9095688
1.9049888
1.9065188
1.9080488
1.8988888
1.8988888
1.9049888
1.8958388
1.8943088
1.8943088
1.9004188
1.9126188
1.9080488
1.9019388
1.8958388
1.8882088
1.8943088
1.8958388
1.9049888
1.8958388
1.8759988
1.8622688
1.8515888
1.8485388
1.8668488
1.8775288
1.8897388
1.9004188
1.8912588
1.8851588
1.8912588
1.9004188
1.9019388
1.9019388
1.9019388
1.8973688
1.8943088
1.8912588
1.8973688
1.9049888
1.9004188
1.8912588
1.8866788
1.8897388
1.8927888
1.8958388
1.8958388
1.8988888
1.8943088
1.9065188
1.8973688
1.8836288
1.8759988
1.8744788
1.8790488
1.8851588
1.8973688
1.9049888
1.9202488
1.9141488
1.9049888
1.8973688
1.8836288
1.8821088
1.8973688
1.9126188
1.9019388
1.8943088
1.8897388
1.8943088
1.9004188
1.9049888
1.9095688
1.9126188
1.9065188
1.8958388
1.8927888
1.8866788
1.8897388
1.8866788
1.8851588
1.8836288
1.8805788
1.8759988
1.8805788
1.8851588
1.8897388
1.8912588
1.8958388
1.8882088
1.8851588
1.8790488
1.8622688
1.8546388
1.8439588
1.8515888
1.8622688
1.8683688
1.8744788
1.8836288
1.9019388
1.9156788
1.9095688
1.8958388
1.8882088
1.8851588
1.8943088
1.8958388
1.9019388
1.8958388
1.8912588
1.8912588
1.8897388
1.8927888
1.8958388
1.8988888
1.8912588
1.8821088
1.8866788
1.8805788
1.8790488
1.8790488
1.8775288
1.8653188
1.8668488
1.8790488
1.8943088
1.9126188
1.9248288
1.9156788
1.9019388
1.9049888
1.9019388
1.9004188
1.9019388
1.9019388
1.8943088
1.8988888
1.8958388
1.8988888
1.9004188
1.8943088
1.8912588
1.8943088
1.8927888
1.8943088
1.8943088
1.8836288
1.8805788
1.8866788
1.8897388
1.8882088
1.8851588
1.8836288
1.8897388
1.8912588
1.8958388
1.9004188
1.9080488
1.9202488
1.9171988
1.9171988
1.9065188
1.9019388
1.8927888
1.8866788
1.8790488
1.8790488
1.8607388
1.8546388
1.8531088
1.8637988
1.8790488
1.8821088
1.8836288
1.8912588
1.8943088
1.8943088
1.8851588
1.8897388
1.8927888
1.8912588
1.9004188
1.9019388
1.9004188
1.8927888
1.8866788
1.8927888
1.8973688
1.8958388
1.8958388
1.8897388
1.8897388
1.8882088
1.8851588
1.8790488
1.8683688
1.8668488
1.8653188
1.8790488
1.8866788
1.8866788
1.8805788
1.8744788
1.8821088
1.8882088
1.9019388
1.9049888
1.9019388
1.8988888
1.8897388
1.8912588
1.8943088
1.8821088
1.8851588
1.8927888
1.8912588
1.8851588
1.8866788
1.8927888
1.9019388
1.9110988
1.9202488
1.9156788
1.9019388
1.8912588
1.8882088
1.9080488
1.9156788
1.9141488
1.9171988
1.9187288
1.9171988
1.9263588
1.9232988
1.9141488
1.9187288
1.9232988
1.9171988
1.9126188
1.9156788
1.9141488
1.9110988
1.9065188
1.9080488
1.9065188
1.9080488
1.9110988
1.9110988
1.9187288
1.9141488
1.9065188
1.9232988
1.9324588
1.9355088
1.9232988
1.9217788
1.9126188
1.9049888
1.8973688
1.8943088
1.8958388
1.8912588
1.8851588
1.8897388
1.8973688
1.9019388
1.8973688
1.9049888
1.9019388
1.9019388
1.8973688
1.8958388
1.8958388
1.8958388
1.8958388
1.8943088
1.8943088
1.8790488
1.8805788
1.8866788
1.8958388
1.9019388
1.9171988
1.9232988
1.9324588
1.9278788
1.9232988
1.9065188
1.8973688
1.8912588
1.8927888
1.8866788
1.8836288
1.8821088
1.8851588
1.8897388
1.8973688
1.9019388
1.9156788
1.9202488
1.9126188
1.9049888
1.9019388
1.8973688
1.8958388
1.9004188
1.8988888
1.8912588
1.8882088
1.8897388
1.9004188
1.8927888
1.8958388
1.9156788
1.9217788
1.9202488
1.9171988
1.9110988
1.9065188
1.8988888
1.8912588
1.8943088
1.8988888
1.9095688
1.9126188
1.9126188
1.9110988
1.9065188
1.9019388
1.8927888
1.9110988
1.9217788
1.9232988
1.9278788
1.9232988
1.9187288
1.9110988
1.8958388
1.8836288
1.8759988
1.8714288
1.8576888
1.8515888
1.8531088
1.8637988
1.8744788
1.8958388
1.9110988
1.9217788
1.9309288
1.9309288
1.9217788
1.9019388
1.8912588
1.8943088
1.9065188
1.9019388
1.8943088
1.8866788
1.8927888
1.8973688
1.9004188
1.8973688
1.8927888
1.8927888
1.8790488
1.8790488
1.8836288
1.8912588
1.8973688
1.8988888
1.8943088
1.9019388
1.9171988
1.9110988
1.8988888
1.8958388
1.8988888
1.9110988
1.9202488
1.9156788
1.9049888
1.8973688
1.8958388
1.8927888
1.8912588
1.8882088
1.8836288
1.8790488
1.8698988
1.8698988
1.8821088
1.8836288
1.8790488
1.8668488
1.8592188
1.8409088
1.8332788
1.8485388
1.8714288
1.8988888
1.9141488
1.9110988
1.8836288
1.8714288
1.8851588
1.9019388
1.9202488
1.9171988
1.9004188
1.9004188
1.8958388
1.8973688
1.8988888
1.8988888
1.8958388
1.8988888
1.8897388
1.8607388
1.8500588
1.8698988
1.8973688
1.9294088
1.9370388
1.9080488
1.9019388
1.8943088
1.8943088
1.8882088
1.9004188
1.9049888
1.9110988
1.9095688
1.9110988
1.9187288
1.9095688
1.9095688
1.9080488
1.9065188
1.9019388
1.8988888
1.9065188
1.9049888
1.9019388
1.9049888
1.8988888
1.9004188
1.8958388
1.8988888
1.9004188
1.9019388
1.9004188
1.8988888
1.9004188
1.9019388
1.9019388
1.9019388
1.9019388
1.9004188
1.9019388
1.9080488
1.9049888
1.9049888
1.9080488
1.9065188
1.9095688
1.9019388
1.8958388
1.8897388
1.8882088
1.8866788
1.8790488
1.8912588
1.9019388
1.9141488
1.9141488
1.9019388
1.8958388
1.8958388
1.8973688
1.9004188
1.9004188
1.8973688
1.8988888
1.8973688
1.8927888
1.8958388
1.9004188
1.9065188
1.9065188
1.9080488
1.8988888
1.9019388
1.8927888
1.8851588
1.8866788
1.8958388
1.9049888
1.9110988
1.9095688
1.8927888
1.8851588
1.8775288
1.8790488
1.8882088
1.8851588
1.8851588
1.8912588
1.9019388
1.9004188
1.9080488
1.9248288
1.9232988
1.9217788
1.9187288
1.9049888
1.8943088
1.9049888
1.9217788
1.9461888
1.9736588
1.9507688
1.9141488
1.8912588
1.9065188
1.9080488
1.9080488
1.9126188
1.9187288
1.9263588
1.9385588
1.9355088
1.9294088
1.9248288
1.9202488
1.8958388
1.9065188
1.9156788
1.9217788
1.9263588
1.9309288
1.9400888
1.9370388
1.9278788
1.9202488
1.9171988
1.9187288
1.9187288
1.9263588
1.9263588
1.9217788
1.9278788
1.9278788
1.9278788
1.9232988
1.9248288
1.9232988
1.9278788
1.9324588
1.9385588
1.9400888
1.9355088
1.9324588
1.9263588
1.9217788
1.9248288
1.9141488
1.9019388
1.9141488
1.9278788
1.9370388
1.9294088
1.9202488
1.9171988
1.9156788
1.9217788
1.9156788
1.9080488
1.9126188
1.9217788
1.9324588
1.9477188
1.9522988
1.9492388
1.9461888
1.9416188
1.9400888
1.9446688
1.9370388
1.9309288
1.9324588
1.9309288
1.9294088
1.9202488
1.9126188
1.8912588
1.8851588
1.8851588
1.8912588
1.9095688
1.9278788
1.9599288
1.9767088
1.9858688
1.9934988
2.0011188
2.0041788
1.9828088
1.9706088
1.9706088
1.9461888
1.9263588
1.9065188
1.8882088
1.8759988
1.8714288
1.8851588
1.9156788
1.9431388
1.9507688
1.9492388
1.9431388
1.9446688
1.9400888
1.9385588
1.9446688
1.9461888
1.9400888
1.9370388
1.9263588
1.9171988
1.9156788
1.9126188
1.9187288
1.9217788
1.9217788
1.9171988
1.9171988
1.9232988
1.9294088
1.9324588
1.9431388
1.9385588
1.9248288
1.9156788
1.9171988
1.9263588
1.9309288
1.9324588
1.9324588
1.9355088
1.9431388
1.9446688
1.9446688
1.9400888
1.9385588
1.9370388
1.9309288
1.9278788
1.9324588
1.9400888
1.9370388
1.9416188
1.9370388
1.9355088
1.9309288
1.9324588
1.9324588
1.9324588
1.9324588
1.9324588
1.9217788
1.9156788
1.9156788
1.9126188
1.9232988
1.9385588
1.9355088
1.9263588
1.9355088
1.9385588
1.9294088
1.9278788
1.9324588
1.9248288
1.9156788
1.9187288
1.9263588
1.9156788
1.8973688
1.8943088
1.9110988
1.9294088
1.9278788
1.9309288
1.9400888
1.9477188
1.9477188
1.9400888
1.9294088
1.9278788
1.9309288
1.9477188
1.9446688
1.9416188
1.9385588
1.9324588
1.9370388
1.9400888
1.9446688
1.9446688
1.9507688
1.9461888
1.9461888
1.9400888
1.9400888
1.9370388
1.9309288
1.9263588
1.9217788
1.9187288
1.9202488
1.9263588
1.9278788
1.9278788
1.9461888
1.9538188
1.9553488
1.9461888
1.9416188
1.9385588
1.9416188
1.9416188
1.9400888
1.9385588
1.9370388
1.9355088
1.9355088
1.9355088
1.9324588
1.9263588
1.9294088
1.9309288
1.9385588
1.9385588
1.9385588
1.9324588
1.9309288
1.9294088
1.9309288
1.9248288
1.9217788
1.9141488
1.9156788
1.9324588
1.9431388
1.9324588
1.9294088
1.9324588
1.9461888
1.9538188
1.9416188
1.9309288
1.9187288
1.9049888
1.8912588
1.8790488
1.8821088
1.8851588
1.8882088
1.8988888
1.9080488
1.9156788
1.9309288
1.9263588
1.9461888
1.9614488
1.9751788
1.9690788
1.9706088
1.9736588
1.9721288
1.9583988
1.9629788
1.9721288
1.9629788
1.9599288
1.9553488
1.9568688
1.9522988
1.9522988
1.9507688
1.9522988
1.9492388
1.9522988
1.9553488
1.9568688
1.9507688
1.9477188
1.9507688
1.9507688
1.9522988
1.9507688
1.9522988
1.9461888
1.9431388
1.9446688
1.9461888
1.9538188
1.9522988
1.9492388
1.9416188
1.9385588
1.9431388
1.9446688
1.9431388
1.9461888
1.9431388
1.9477188
1.9477188
1.9461888
1.9446688
1.9492388
1.9461888
1.9461888
1.9492388
1.9477188
1.9522988
1.9492388
1.9400888
1.9324588
1.9385588
1.9385588
1.9400888
1.9400888
1.9385588
1.9477188
1.9538188
1.9553488
1.9538188
1.9507688
1.9461888
1.9492388
1.9507688
1.9538188
1.9507688
1.9461888
1.9416188
1.9431388
1.9507688
1.9538188
1.9568688
1.9522988
1.9492388
1.9507688
1.9446688
1.9385588
1.9385588
1.9431388
1.9507688
1.9522988
1.9400888
1.9324588
1.9324588
1.9522988
1.9736588
1.9843388
1.9828088
1.9828088
1.9812888
1.9767088
1.9675588
1.9522988
1.9400888
1.9263588
1.9263588
1.9278788
1.9187288
1.9187288
1.9248288
1.9324588
1.9507688
1.9553488
1.9583988
1.9583988
1.9629788
1.9690788
1.9675588
1.9599288
1.9629788
1.9583988
1.9583988
1.9568688
1.9492388
1.9431388
1.9416188
1.9385588
1.9324588
1.9370388
1.9355088
1.9385588
1.9416188
1.9446688
1.9538188
1.9538188
1.9629788
1.9706088
1.9675588
1.9583988
1.9568688
1.9553488
1.9522988
1.9507688
1.9507688
1.9507688
1.9492388
1.9446688
1.9400888
1.9400888
1.9324588
1.9370388
1.9355088
1.9461888
1.9477188
1.9492388
1.9553488
1.9644988
1.9812888
1.9736588
1.9614488
1.9583988
1.9629788
1.9629788
1.9751788
1.9721288
1.9675588
1.9629788
1.9614488
1.9614488
1.9538188
1.9522988
1.9477188
1.9507688
1.9446688
1.9370388
1.9278788
1.9355088
1.9416188
1.9446688
1.9553488
1.9629788
1.9644988
1.9706088
1.9644988
1.9568688
1.9507688
1.9202488
1.9019388
1.8958388
1.9004188
1.9171988
1.9263588
1.9416188
1.9690788
1.9934988
2.0118088
1.9919688
1.9767088
1.9583988
1.9477188
1.9492388
1.9599288
1.9461888
1.9355088
1.9355088
1.9370388
1.9492388
1.9492388
1.9507688
1.9583988
1.9599288
1.9461888
1.9477188
1.9507688
1.9461888
1.9461888
1.9431388
1.9461888
1.9492388
1.9492388
1.9446688
1.9355088
1.9370388
1.9355088
1.9355088
1.9278788
1.9416188
1.9431388
1.9522988
1.9583988
1.9614488
1.9583988
1.9492388
1.9477188
1.9492388
1.9553488
1.9583988
1.9614488
1.9644988
1.9690788
1.9599288
1.9553488
1.9568688
1.9522988
1.9507688
1.9492388
1.9477188
1.9446688
1.9400888
1.9370388
1.9370388
1.9294088
1.9263588
1.9156788
1.9004188
1.8943088
1.8988888
1.9110988
1.9187288
1.9431388
1.9629788
1.9782388
1.9782388
1.9843388
1.9797588
1.9644988
1.9553488
1.9507688
1.9492388
1.9477188
1.9309288
1.9294088
1.9294088
1.9324588
1.9278788
1.9324588
1.9568688
1.9538188
1.9507688
1.9492388
1.9416188
1.9477188
1.9461888
1.9416188
1.9431388
1.9446688
1.9416188
1.9416188
1.9263588
1.9232988
1.9232988
1.9202488
1.9156788
1.9248288
1.9294088
1.9431388
1.9461888
1.9370388
1.9355088
1.9400888
1.9477188
1.9416188
1.9370388
1.9385588
1.9400888
1.9446688
1.9416188
1.9370388
1.9294088
1.9355088
1.9431388
1.9492388
1.9553488
1.9538188
1.9477188
1.9400888
1.9446688
1.9538188
1.9492388
1.9416188
1.9400888
1.9355088
1.9370388
1.9355088
1.9278788
1.9232988
1.9355088
1.9416188
1.9431388
1.9416188
1.9355088
1.9248288
1.9232988
1.9126188
1.9019388
1.9049888
1.9019388
1.9065188
1.9080488
1.9507688
1.9706088
1.9797588
1.9797588
1.9690788
1.9553488
1.9431388
1.9324588
1.9248288
1.9156788
1.8988888
1.9004188
1.9187288
1.9324588
1.9385588
1.9355088
1.9461888
1.9431388
1.9400888
1.9385588
1.9370388
1.9324588
1.9278788
1.9263588
1.9232988
1.9187288
1.9187288
1.9202488
1.9263588
1.9294088
1.9263588
1.9217788
1.9187288
1.9202488
1.9217788
1.9202488
1.9171988
1.9202488
1.9248288
1.9263588
1.9263588
1.9309288
1.9309288
1.9461888
1.9492388
1.9461888
1.9400888
1.9324588
1.9263588
1.9248288
1.9232988
1.9171988
1.9202488
1.9126188
1.9065188
1.9095688
1.9126188
1.9171988
1.9217788
1.9263588
1.9278788
1.9309288
1.9278788
1.9217788
1.9156788
1.9080488
1.9080488
1.9156788
1.9294088
1.9248288
1.9248288
1.9202488
1.9217788
1.9248288
1.9202488
1.9156788
1.9156788
1.9141488
1.9187288
1.9278788
1.9294088
1.9278788
1.9278788
1.9294088
1.9278788
1.9278788
1.9217788
1.9294088
1.9248288
1.9263588
1.9278788
1.9217788
1.9156788
1.9202488
1.9187288
1.9171988
1.9217788
1.9217788
1.9156788
1.9171988
1.9156788
1.9110988
1.9065188
1.9156788
1.9248288
1.9263588
1.9232988
1.9248288
1.9217788
1.9217788
1.9187288
1.9232988
1.9232988
1.9278788
1.9263588
1.9263588
1.9232988
1.9232988
1.9263588
1.9232988
1.9187288
1.9126188
1.9156788
1.9202488
1.9248288
1.9217788
1.9171988
1.9156788
1.9095688
1.9065188
1.9019388
1.9004188
1.8988888
1.9065188
1.9416188
1.9507688
1.9431388
1.9309288
1.9278788
1.9232988
1.9141488
1.9065188
1.8973688
1.8882088
1.8790488
1.8790488
1.8912588
1.8988888
1.9049888
1.9065188
1.9202488
1.9232988
1.9202488
1.9202488
1.9232988
1.9171988
1.9080488
1.9065188
1.9095688
1.9110988
1.9141488
1.9156788
1.9187288
1.9217788
1.9232988
1.9202488
1.9232988
1.9202488
1.9156788
1.9080488
1.9110988
1.9065188
1.9156788
1.9141488
1.9095688
1.9080488
1.9065188
1.9080488
1.9019388
1.8988888
1.8821088
1.8805788
1.8866788
1.9019388
1.9049888
1.9080488
1.9080488
1.9110988
1.9156788
1.9126188
1.9156788
1.9141488
1.9141488
1.9217788
1.9370388
1.9263588
1.9156788
1.9156788
1.9187288
1.9202488
1.9187288
1.9171988
1.9171988
1.9217788
1.9217788
1.9202488
1.9217788
1.9248288
1.9187288
1.9019388
1.8988888
1.8958388
1.8943088
1.8973688
1.9004188
1.9110988
1.9095688
1.9141488
1.9217788
1.9248288
1.9202488
1.9065188
1.9049888
1.9126188
1.9171988
1.9141488
1.9156788
1.9126188
1.9126188
1.9202488
1.9187288
1.9156788
1.9141488
1.9156788
1.9126188
1.9156788
1.9126188
1.9141488
1.9095688
1.9080488
1.9065188
1.9019388
1.9019388
1.9004188
1.9004188
1.9080488
1.9126188
1.9126188
1.9355088
1.9461888
1.9492388
1.9461888
1.9355088
1.9217788
1.9080488
1.8943088
1.8882088
1.8744788
1.8607388
1.8607388
1.8546388
1.8668488
1.8836288
1.8866788
1.8897388
1.9141488
1.9248288
1.9294088
1.9309288
1.9217788
1.9202488
1.9126188
1.9171988
1.9217788
1.9217788
1.9049888
1.8988888
1.9004188
1.9141488
1.9171988
1.9141488
1.9004188
1.8958388
1.9004188
1.9110988
1.9141488
1.9126188
1.9126188
1.9110988
1.9187288
1.9156788
1.9095688
1.9004188
1.8988888
1.8927888
1.8943088
1.9065188
1.9004188
1.9004188
1.9065188
1.9110988
1.9171988
1.9156788
1.9095688
1.9080488
1.9141488
1.9171988
1.9187288
1.9126188
1.9126188
1.9187288
1.9126188
1.8973688
1.8897388
1.8882088
1.8912588
1.8958388
1.9080488
1.9110988
1.9171988
1.9156788
1.9309288
1.9431388
1.9446688
1.9370388
1.9370388
1.9400888
1.9278788
1.9095688
1.8973688
1.8897388
1.8866788
1.8714288
1.8759988
1.8836288
1.8988888
1.9065188
1.9126188
1.9080488
1.9141488
1.9110988
1.9080488
1.9049888
1.9110988
1.9141488
1.9141488
1.9095688
1.9019388
1.9019388
1.8958388
1.8943088
1.8912588
1.8927888
1.9019388
1.9095688
1.9110988
1.9294088
1.9324588
1.9217788
1.9156788
1.9080488
1.9049888
1.9019388
1.9049888
1.9080488
1.9126188
1.9141488
1.9080488
1.9065188
1.9019388
1.8988888
1.9065188
1.9065188
1.9049888
1.9019388
1.9049888
1.9065188
1.9065188
1.9004188
1.9019388
1.8988888
1.8943088
1.8897388
1.9019388
1.9126188
1.9141488
1.9126188
1.9065188
1.9004188
1.8897388
1.8805788
1.8790488
1.8744788
1.8775288
1.8882088
1.8927888
1.8988888
1.9049888
1.9217788
1.9217788
1.9232988
1.9126188
1.9126188
1.9217788
1.9187288
1.9095688
1.9065188
1.9248288
1.9400888
1.9400888
1.9324588
1.9263588
1.9217788
1.9141488
1.9004188
1.8973688
1.8943088
1.8775288
1.8698988
1.8714288
1.8821088
1.8821088
1.8866788
1.8897388
1.8988888
1.9049888
1.9080488
1.9126188
1.9110988
1.9126188
1.9126188
1.9156788
1.9110988
1.9110988
1.9202488
1.9141488
1.9004188
1.9004188
1.8927888
1.8973688
1.8897388
1.8866788
1.8897388
1.9004188
1.9004188
1.9004188
1.9019388
1.8958388
1.8958388
1.9065188
1.9065188
1.9004188
1.8973688
1.8988888
1.9019388
1.8988888
1.9004188
1.9080488
1.9049888
1.9065188
1.9095688
1.9110988
1.9171988
1.9110988
1.9095688
1.8958388
1.8851588
1.8836288
1.8851588
1.8882088
1.8912588
1.8943088
1.8943088
1.9004188
1.8988888
1.9004188
1.9080488
1.9095688
1.9141488
1.9126188
1.9019388
1.9049888
1.9049888
1.9080488
1.9065188
1.8882088
1.8821088
1.8836288
1.8851588
1.8866788
1.8912588
1.8988888
1.9080488
1.9126188
1.9141488
1.9080488
1.9065188
1.9019388
1.9019388
1.9065188
1.9110988
1.9049888
1.9019388
1.9080488
1.9049888
1.9110988
1.9324588
1.9461888
1.9400888
1.9370388
1.9400888
1.9385588
1.9248288
1.9065188
1.8836288
1.8637988
1.8576888
1.8698988
1.8653188
1.8698988
1.8775288
1.8821088
1.9004188
1.9049888
1.9049888
1.8973688
1.8958388
1.8988888
1.9141488
1.9248288
1.9263588
1.9217788
1.9141488
1.9141488
1.9171988
1.9187288
1.9202488
1.9156788
1.9126188
1.9095688
1.9065188
1.9019388
1.8988888
1.9049888
1.9095688
1.9126188
1.9126188
1.9049888
1.9065188
1.8988888
1.8958388
1.8943088
1.8973688
1.9065188
1.9110988
1.9187288
1.9217788
1.9187288
1.9110988
1.9095688
1.9049888
1.8973688
1.8927888
1.8851588
1.8744788
1.8653188
1.8683688
1.8821088
1.8866788
1.8866788
1.8973688
1.9019388
1.9202488
1.9248288
1.9294088
1.9232988
1.9202488
1.9217788
1.9248288
1.9171988
1.9126188
1.9126188
1.9126188
1.9141488
1.9156788
1.9156788
1.9110988
1.9065188
1.9019388
1.9065188
1.9202488
1.9385588
1.9492388
1.9461888
1.9355088
1.9248288
1.9156788
1.9019388
1.8912588
1.8836288
1.8805788
1.8744788
1.8775288
1.8805788
1.8927888
1.8988888
1.8897388
1.8988888
1.8927888
1.8805788
1.8821088
1.8927888
1.9080488
1.9171988
1.9171988
1.9126188
1.9141488
1.9156788
1.9156788
1.9156788
1.9171988
1.9065188
1.9049888
1.8973688
1.9004188
1.9065188
1.9065188
1.9049888
1.9080488
1.9141488
1.9110988
1.9095688
1.9049888
1.8988888
1.9049888
1.9019388
1.9126188
1.9156788
1.9065188
1.9004188
1.8943088
1.8912588
1.8943088
1.8943088
1.8958388
1.8943088
1.8897388
1.8912588
1.8988888
1.9095688
1.9248288
1.9278788
1.9248288
1.9217788
1.9232988
1.9232988
1.9309288
1.9278788
1.9217788
1.9171988
1.9187288
1.9141488
1.9126188
1.9141488
1.9004188
1.9080488
1.9080488
1.9080488
1.9019388
1.9004188
1.9080488
1.9049888
1.9049888
1.9095688
1.9080488
1.9156788
1.9171988
1.9232988
1.9217788
1.9202488
1.8958388
1.8851588
1.8988888
1.9065188
1.9065188
1.9110988
1.9141488
1.9095688
1.9049888
1.9126188
1.9156788
1.9110988
1.9065188
1.8882088
1.9004188
1.9065188
1.9080488
1.9110988
1.9294088
1.9263588
1.9278788
1.9232988
1.9126188
1.9065188
1.9049888
1.9049888
1.9065188
1.9095688
1.9110988
1.9110988
1.9110988
1.9065188
1.9065188
1.8988888
1.8943088
1.8958388
1.9080488
1.9171988
1.9202488
1.9141488
1.9126188
1.9080488
1.9126188
1.9171988
1.9248288
1.9202488
1.9217788
1.9156788
1.9019388
1.9171988
1.9232988
1.9171988
1.9126188
1.9095688
1.9065188
1.9095688
1.9095688
1.9065188
1.9080488
1.9202488
1.9263588
1.9217788
1.9095688
1.9156788
1.9141488
1.9141488
1.9171988
1.9126188
1.9171988
1.9156788
1.9187288
1.9187288
1.9171988
1.9095688
1.9095688
1.9080488
1.9049888
1.9095688
1.9019388
1.9126188
1.9126188
1.9095688
1.9141488
1.9171988
1.9126188
1.9156788
1.9232988
1.9324588
1.9278788
1.9202488
1.9141488
1.9263588
1.9370388
1.9416188
1.9324588
1.9263588
1.9278788
1.9110988
1.9065188
1.9019388
1.8912588
1.8805788
1.8805788
1.8866788
1.8851588
1.8912588
1.8882088
1.8973688
1.9065188
1.9141488
1.9187288
1.9202488
1.9217788
1.9187288
1.9126188
1.9156788
1.9171988
1.9126188
1.9202488
1.9217788
1.9126188
1.9095688
1.9004188
1.8927888
1.8866788
1.8821088
1.8775288
1.8836288
1.8927888
1.9019388
1.9065188
1.9171988
1.9126188
1.9126188
1.9095688
1.9019388
1.9019388
1.9141488
1.9232988
1.9156788
1.9141488
1.9126188
1.9141488
1.9110988
1.9110988
1.9110988
1.9126188
1.9171988
1.9171988
1.9126188
1.9019388
1.8897388
1.8958388
1.9065188
1.9156788
1.9110988
1.9065188
1.9095688
1.9080488
1.9095688
1.9126188
1.9110988
1.9049888
1.9019388
1.9004188
1.8973688
1.9019388
1.9019388
1.9004188
1.9217788
1.9355088
1.9294088
1.9278788
1.9171988
1.9095688
1.9095688
1.9080488
1.9065188
1.8759988
1.8531088
1.8454888
1.8454888
1.8592188
1.8836288
1.8851588
1.9004188
1.9187288
1.9141488
1.9232988
1.9187288
1.9156788
1.9187288
1.9263588
1.9156788
1.8973688
1.8943088
1.8927888
1.8958388
1.8927888
1.8927888
1.8866788
1.8927888
1.8943088
1.8988888
1.9019388
1.9080488
1.8988888
1.8958388
1.8912588
1.8897388
1.8866788
1.8805788
1.8683688
1.8698988
1.8683688
1.8668488
1.8683688
1.8790488
1.8882088
1.8943088
1.9065188
1.9049888
1.9049888
1.9080488
1.9095688
1.9080488
1.9126188
1.9126188
1.9080488
1.9049888
1.9126188
1.9126188
1.9156788
1.9156788
1.9171988
1.9095688
1.9095688
1.9095688
1.9019388
1.9004188
1.9049888
1.8973688
1.9019388
1.9049888
1.8988888
1.8943088
1.8973688
1.8973688
1.8988888
1.9004188
1.8943088
1.8943088
1.8958388
1.8943088
1.9004188
1.9095688
1.9080488
1.9065188
1.9065188
1.9019388
1.9049888
1.9004188
1.8882088
1.8866788
1.8592188
1.8775288
1.8897388
1.8958388
1.9019388
1.9065188
1.9202488
1.9187288
1.9141488
1.9019388
1.8866788
1.8744788
1.8714288
1.8821088
1.8897388
1.8866788
1.8836288
1.8988888
1.9065188
1.8958388
1.8973688
1.9095688
1.9202488
1.9217788
1.9126188
1.9019388
1.8943088
1.8897388
1.8958388
1.8973688
1.8988888
1.9004188
1.9080488
1.9095688
1.9126188
1.9095688
1.9019388
1.9080488
1.9156788
1.9187288
1.9156788
1.9095688
1.9049888
1.9019388
1.8973688
1.9065188
1.9095688
1.8988888
1.8988888
1.9004188
1.9019388
1.9110988
1.9126188
1.9110988
1.9065188
1.9080488
1.9019388
1.8988888
1.8973688
1.8958388
1.8927888
1.8927888
1.8805788
1.8790488
1.8744788
1.8775288
1.8866788
1.9004188
1.9110988
1.9187288
1.9248288
1.9217788
1.9126188
1.9110988
1.9126188
1.9171988
1.9294088
1.9217788
1.9232988
1.9416188
1.9431388
1.9416188
1.9324588
1.9309288
1.9232988
1.9126188
1.9019388
1.8943088
1.8775288
1.8653188
1.8576888
1.8576888
1.8637988
1.8683688
1.8805788
1.8973688
1.9095688
1.9080488
1.9126188
1.9171988
1.9187288
1.9294088
1.9294088
1.9248288
1.9294088
1.9187288
1.9049888
1.8912588
1.8851588
1.8866788
1.8851588
1.8927888
1.8958388
1.8958388
1.8958388
1.8958388
1.8973688
1.8943088
1.8927888
1.8988888
1.9080488
1.9156788
1.9278788
1.9248288
1.9248288
1.9171988
1.9187288
1.9141488
1.9141488
1.9095688
1.9004188
1.8943088
1.8866788
1.8927888
1.8973688
1.9049888
1.9049888
1.9065188
1.9080488
1.9095688
1.9126188
1.9095688
1.9080488
1.9095688
1.9065188
1.9080488
1.9187288
1.9324588
1.9400888
1.9248288
1.9171988
1.9080488
1.9004188
1.8897388
1.8836288
1.8897388
1.8882088
1.8897388
1.8866788
1.8882088
1.8958388
1.8988888
1.9080488
1.9324588
1.9248288
1.9217788
1.9156788
1.9095688
1.9141488
1.9110988
1.9065188
1.9019388
1.9049888
1.9110988
1.9202488
1.9171988
1.9110988
1.9080488
1.9095688
1.9126188
1.9126188
1.9110988
1.9187288
1.9171988
1.9141488
1.9248288
1.9294088
1.9248288
1.9217788
1.9294088
1.9263588
1.9156788
1.9065188
1.9065188
1.9019388
1.8988888
1.9049888
1.9065188
1.9065188
1.8988888
1.9019388
1.9095688
1.9126188
1.9049888
1.9080488
1.9049888
1.9126188
1.9141488
1.9080488
1.9065188
1.8943088
1.8882088
1.8897388
1.8973688
1.8973688
1.9019388
1.9110988
1.9187288
1.9232988
1.9232988
1.9202488
1.9202488
1.9080488
1.9049888
1.9171988
1.9202488
1.9110988
1.9049888
1.9065188
1.9110988
1.9049888
1.8927888
1.8988888
1.8805788
1.8790488
1.8943088
1.8988888
1.9171988
1.9263588
1.9370388
1.9431388
1.9400888
1.9370388
1.9110988
1.9065188
1.9004188
1.8973688
1.9049888
1.9110988
1.9156788
1.9232988
1.9278788
1.9171988
1.9080488
1.9080488
1.9141488
1.9141488
1.9217788
1.9217788
1.9187288
1.9217788
1.9202488
1.9278788
1.9263588
1.9202488
1.9217788
1.9232988
1.9156788
1.9141488
1.9080488
1.9110988
1.9110988
1.9095688
1.9171988
1.9217788
1.9187288
1.9110988
1.9110988
1.9171988
1.9141488
1.9095688
1.9049888
1.9065188
1.9065188
1.9065188
1.9110988
1.9110988
1.9126188
1.9110988
1.9110988
1.9171988
1.9110988
1.9126188
1.9141488
1.9156788
1.9187288
1.9202488
1.9156788
1.9156788
1.9141488
1.9126188
1.9065188
1.9065188
1.8973688
1.9049888
1.9095688
1.9141488
1.9187288
1.9080488
1.9126188
1.9263588
1.9232988
1.9232988
1.9110988
1.9049888
1.9049888
1.9019388
1.9080488
1.9004188
1.8988888
1.8882088
1.8882088
1.8958388
1.9126188
1.9187288
1.9263588
1.9385588
1.9324588
1.9324588
1.9095688
1.8958388
1.8927888
1.8958388
1.8988888
1.9126188
1.9156788
1.9309288
1.9477188
1.9461888
1.9370388
1.9355088
1.9294088
1.9309288
1.9355088
1.9294088
1.9187288
1.9156788
1.9217788
1.9232988
1.9217788
1.9263588
1.9278788
1.9263588
1.9187288
1.9141488
1.9126188
1.9110988
1.9141488
1.9156788
1.9156788
1.9156788
1.9156788
1.9156788
1.9171988
1.9141488
1.9065188
1.9171988
1.9171988
1.9126188
1.9110988
1.9095688
1.9110988
1.9217788
1.9171988
1.9156788
1.9156788
1.9141488
1.9156788
1.9171988
1.9171988
1.9202488
1.9187288
1.9171988
1.9217788
1.9202488
1.9187288
1.9171988
1.9141488
1.9141488
1.9141488
1.9294088
1.9202488
1.9171988
1.9202488
1.9248288
1.9263588
1.9294088
1.9355088
1.9309288
1.9141488
1.9156788
1.9065188
1.8912588
1.8759988
1.8805788
1.8912588
1.9156788
1.9278788
1.9355088
1.9416188
1.9324588
1.9355088
1.9263588
1.9080488
1.8988888
1.8973688
1.9004188
1.9171988
1.9278788
1.9400888
1.9446688
1.9370388
1.9324588
1.9309288
1.9278788
1.9202488
1.9232988
1.9202488
1.9171988
1.9156788
1.9171988
1.9187288
1.9232988
1.9324588
1.9400888
1.9400888
1.9355088
1.9324588
1.9278788
1.9294088
1.9309288
1.9263588
1.9217788
1.9156788
1.9126188
1.9095688
1.9095688
1.9080488
1.9110988
1.9141488
1.9141488
1.9141488
1.9156788
1.9110988
1.9080488
1.9126188
1.9049888
1.9110988
1.9171988
1.9217788
1.9187288
1.9309288
1.9385588
1.9400888
1.9309288
1.9232988
1.9248288
1.9217788
1.9232988
1.9217788
1.9156788
1.9080488
1.9095688
1.9126188
1.9141488
1.9217788
1.9263588
1.9370388
1.9400888
1.9385588
1.9278788
1.9446688
1.9583988
1.9675588
1.9614488
1.9538188
1.9446688
1.9324588
1.9202488
1.9171988
1.9110988
1.8973688
1.8836288
1.8759988
1.8805788
1.8927888
1.9019388
1.9171988
1.9171988
1.9202488
1.9187288
1.9248288
1.9248288
1.9156788
1.9171988
1.9156788
1.9217788
1.9355088
1.9370388
1.9400888
1.9385588
1.9294088
1.9248288
1.9263588
1.9294088
1.9126188
1.8988888
1.8958388
1.8973688
1.9065188
1.9141488
1.9248288
1.9355088
1.9431388
1.9461888
1.9370388
1.9278788
1.9171988
1.9202488
1.9309288
1.9263588
1.9217788
1.9202488
1.9217788
1.9217788
1.9248288
1.9263588
1.9278788
1.9278788
1.9355088
1.9355088
1.9278788
1.9263588
1.9309288
1.9294088
1.9294088
1.9232988
1.9156788
1.9065188
1.9049888
1.9126188
1.9126188
1.9187288
1.9187288
1.9263588
1.9324588
1.9355088
1.9370388
1.9385588
1.9370388
1.9431388
1.9461888
1.9416188
1.9370388
1.9294088
1.9232988
1.9217788
1.9095688
1.9156788
1.9202488
1.9217788
1.9202488
1.9217788
1.9232988
1.9248288
1.9263588
1.9232988
1.9187288
1.9232988
1.9217788
1.9232988
1.9202488
1.9171988
1.9278788
1.9309288
1.9400888
1.9431388
1.9461888
1.9431388
1.9431388
1.9416188
1.9217788
1.9049888
1.8897388
1.8912588
1.8973688
1.9217788
1.9324588
1.9370388
1.9507688
1.9492388
1.9477188
1.9461888
1.9385588
1.9294088
1.9278788
1.9355088
1.9355088
1.9355088
1.9355088
1.9324588
1.9309288
1.9248288
1.9263588
1.9171988
1.9156788
1.9171988
1.9171988
1.9171988
1.9141488
1.9110988
1.9126188
1.9156788
1.9187288
1.9202488
1.9217788
1.9202488
1.9232988
1.9294088
1.9385588
1.9385588
1.9355088
1.9355088
1.9370388
1.9370388
1.9232988
1.9110988
1.9049888
1.9019388
1.9080488
1.9232988
1.9248288
1.9309288
1.9370388
1.9416188
1.9477188
1.9522988
1.9461888
1.9370388
1.9416188
1.9553488
1.9507688
1.9538188
1.9461888
1.9431388
1.9400888
1.9400888
1.9400888
1.9416188
1.9355088
1.9309288
1.9278788
1.9263588
1.9294088
1.9217788
1.9248288
1.9263588
1.9355088
1.9324588
1.9355088
1.9400888
1.9370388
1.9370388
1.9370388
1.9324588
1.9263588
1.9324588
1.9309288
1.9385588
1.9324588
1.9263588
1.9355088
1.9400888
1.9370388
1.9324588
1.9355088
1.9309288
1.9309288
1.9370388
1.9385588
1.9278788
1.9156788
1.9080488
1.9095688
1.9187288
1.9187288
1.9248288
1.9568688
1.9583988
1.9492388
1.9400888
1.9355088
1.9400888
1.9309288
1.9309288
1.9416188
1.9477188
1.9416188
1.9355088
1.9355088
1.9309288
1.9278788
1.9278788
1.9263588
1.9187288
1.9202488
1.9324588
1.9416188
1.9492388
1.9477188
1.9446688
1.9446688
1.9400888
1.9385588
1.9385588
1.9416188
1.9400888
1.9400888
1.9492388
1.9461888
1.9355088
1.9278788
1.9278788
1.9294088
1.9385588
1.9416188
1.9492388
1.9477188
1.9385588
1.9385588
1.9416188
1.9385588
1.9309288
1.9309288
1.9370388
1.9416188
1.9400888
1.9400888
1.9416188
1.9431388
1.9385588
1.9385588
1.9370388
1.9324588
1.9324588
1.9370388
1.9400888
1.9385588
1.9324588
1.9370388
1.9355088
1.9385588
1.9416188
1.9370388
1.9294088
1.9202488
1.9263588
1.9355088
1.9431388
1.9355088
1.9095688
1.9004188
1.9156788
1.9248288
1.9355088
1.9400888
1.9431388
1.9400888
1.9492388
1.9522988
1.9400888
1.9187288
1.9049888
1.9019388
1.9202488
1.9248288
1.9294088
1.9355088
1.9507688
1.9492388
1.9416188
1.9370388
1.9294088
1.9385588
1.9400888
1.9416188
1.9461888
1.9461888
1.9507688
1.9538188
1.9416188
1.9431388
1.9431388
1.9355088
1.9416188
1.9477188
1.9568688
1.9522988
1.9431388
1.9370388
1.9400888
1.9416188
1.9431388
1.9461888
1.9446688
1.9370388
1.9400888
1.9431388
1.9400888
1.9385588
1.9355088
1.9309288
1.9309288
1.9324588
1.9355088
1.9416188
1.9400888
1.9370388
1.9385588
1.9355088
1.9294088
1.9263588
1.9263588
1.9294088
1.9355088
1.9461888
1.9431388
1.9309288
1.9400888
1.9431388
1.9477188
1.9431388
1.9416188
1.9385588
1.9431388
1.9416188
1.9385588
1.9370388
1.9309288
1.9324588
1.9355088
1.9400888
1.9431388
1.9431388
1.9431388
1.9416188
1.9370388
1.9431388
1.9431388
1.9446688
1.9431388
1.9370388
1.9355088
1.9370388
1.9385588
1.9309288
1.9370388
1.9355088
1.9324588
1.9355088
1.9431388
1.9461888
1.9446688
1.9431388
1.9568688
1.9675588
1.9675588
1.9507688
1.9446688
1.9248288
1.9110988
1.9080488
1.9080488
1.9095688
1.9110988
1.9141488
1.9095688
1.9171988
1.9202488
1.9187288
1.9355088
1.9446688
1.9446688
1.9553488
1.9629788
1.9675588
1.9629788
1.9583988
1.9446688
1.9431388
1.9538188
1.9507688
1.9568688
1.9568688
1.9507688
1.9477188
1.9431388
1.9309288
1.9385588
1.9416188
1.9324588
1.9370388
1.9416188
1.9477188
1.9522988
1.9477188
1.9522988
1.9522988
1.9492388
1.9492388
1.9492388
1.9477188
1.9492388
1.9538188
1.9477188
1.9461888
1.9431388
1.9385588
1.9385588
1.9431388
1.9385588
1.9416188
1.9492388
1.9477188
1.9431388
1.9370388
1.9416188
1.9416188
1.9416188
1.9416188
1.9431388
1.9370388
1.9385588
1.9400888
1.9385588
1.9416188
1.9431388
1.9416188
1.9416188
1.9431388
1.9431388
1.9431388
1.9431388
1.9477188
1.9461888
1.9446688
1.9507688
1.9522988
1.9507688
1.9461888
1.9461888
1.9477188
1.9446688
1.9431388
1.9400888
1.9370388
1.9324588
1.9309288
1.9294088
1.9278788
1.9248288
1.9294088
1.9370388
1.9400888
1.9431388
1.9400888
1.9385588
1.9309288
1.9324588
1.9431388
1.9385588
1.9400888
1.9431388
1.9461888
1.9416188
1.9400888
1.9568688
1.9721288
1.9767088
1.9797588
1.9751788
1.9568688
1.9522988
1.9568688
1.9538188
1.9477188
1.9370388
1.9248288
1.9232988
1.9278788
1.9355088
1.9385588
1.9446688
1.9431388
1.9416188
1.9492388
1.9583988
1.9629788
1.9614488
1.9629788
1.9599288
1.9614488
1.9599288
1.9568688
1.9583988
1.9507688
1.9583988
1.9599288
1.9599288
1.9538188
1.9553488
1.9553488
1.9538188
1.9599288
1.9614488
1.9599288
1.9568688
1.9538188
1.9538188
1.9538188
1.9538188
1.9492388
1.9431388
1.9461888
1.9461888
1.9461888
1.9416188
1.9355088
1.9385588
1.9370388
1.9400888
1.9385588
1.9355088
1.9370388
1.9431388
1.9431388
1.9538188
1.9507688
1.9461888
1.9461888
1.9461888
1.9431388
1.9507688
1.9568688
1.9553488
1.9568688
1.9553488
1.9538188
1.9507688
1.9507688
1.9553488
1.9568688
1.9538188
1.9583988
1.9553488
1.9538188
1.9614488
1.9629788
1.9568688
1.9538188
1.9522988
1.9538188
1.9538188
1.9522988
1.9461888
1.9400888
1.9400888
1.9370388
1.9400888
1.9492388
1.9461888
1.9431388
1.9507688
1.9507688
1.9492388
1.9522988
1.9492388
1.9492388
1.9538188
1.9614488
1.9599288
1.9583988
1.9690788
1.9767088
1.9782388
1.9736588
1.9706088
1.9568688
1.9538188
1.9538188
1.9446688
1.9370388
1.9278788
1.9217788
1.9217788
1.9278788
1.9416188
1.9461888
1.9583988
1.9736588
1.9782388
1.9812888
1.9736588
1.9675588
1.9675588
1.9614488
1.9629788
1.9706088
1.9629788
1.9568688
1.9553488
1.9553488
1.9538188
1.9568688
1.9522988
1.9568688
1.9583988
1.9599288
1.9568688
1.9553488
1.9553488
1.9599288
1.9629788
1.9599288
1.9538188
1.9492388
1.9538188
1.9507688
1.9522988
1.9614488
1.9675588
1.9690788
1.9721288
1.9767088
1.9706088
1.9690788
1.9599288
1.9522988
1.9492388
1.9507688
1.9416188
1.9324588
1.9355088
1.9294088
1.9309288
1.9400888
1.9538188
1.9583988
1.9675588
1.9690788
1.9629788
1.9583988
1.9614488
1.9599288
1.9599288
1.9736588
1.9782388
1.9690788
1.9614488
1.9568688
1.9553488
1.9568688
1.9538188
1.9583988
1.9599288
1.9644988
1.9706088
1.9629788
1.9706088
1.9690788
1.9675588
1.9614488
1.9736588
1.9889188
1.9797588
1.9706088
1.9629788
1.9553488
1.9522988
1.9538188
1.9553488
1.9492388
1.9446688
1.9461888
1.9568688
1.9583988
1.9644988
1.9553488
1.9599288
1.9690788
1.9599288
1.9538188
1.9538188
1.9522988
1.9522988
1.9568688
1.9583988
1.9583988
1.9568688
1.9583988
1.9675588
1.9583988
1.9553488
1.9492388
1.9431388
1.9400888
1.9477188
1.9522988
1.9599288
1.9644988
1.9690788
1.9614488
1.9599288
1.9507688
1.9477188
1.9492388
1.9690788
1.9644988
1.9629788
1.9583988
1.9568688
1.9522988
1.9522988
1.9568688
1.9614488
1.9644988
1.9629788
1.9690788
1.9690788
1.9614488
1.9675588
1.9767088
1.9751788
1.9721288
1.9706088
1.9706088
1.9706088
1.9675588
1.9644988
1.9644988
1.9583988
1.9492388
1.9507688
1.9461888
1.9477188
1.9522988
1.9538188
1.9614488
1.9568688
1.9507688
1.9477188
1.9553488
1.9599288
1.9599288
1.9477188
1.9446688
1.9431388
1.9400888
1.9385588
1.9492388
1.9629788
1.9751788
1.9767088
1.9797588
1.9706088
1.9675588
1.9675588
1.9675588
1.9644988
1.9538188
1.9538188
1.9553488
1.9553488
1.9614488
1.9706088
1.9721288
1.9690788
1.9644988
1.9706088
1.9675588
1.9644988
1.9583988
1.9568688
1.9553488
1.9538188
1.9583988
1.9599288
1.9583988
1.9568688
1.9538188
1.9568688
1.9538188
1.9507688
1.9629788
1.9812888
1.9873888
1.9858688
1.9782388
1.9751788
1.9614488
1.9599288
1.9599288
1.9538188
1.9446688
1.9370388
1.9385588
1.9461888
1.9553488
1.9568688
1.9538188
1.9706088
1.9690788
1.9614488
1.9614488
1.9614488
1.9644988
1.9675588
1.9721288
1.9706088
1.9599288
1.9553488
1.9553488
1.9553488
1.9553488
1.9644988
1.9629788
1.9629788
1.9644988
1.9614488
1.9614488
1.9644988
1.9553488
1.9553488
1.9568688
1.9644988
1.9706088
1.9675588
1.9690788
1.9644988
1.9629788
1.9492388
1.9461888
1.9477188
1.9507688
1.9599288
1.9675588
1.9782388
1.9721288
1.9629788
1.9614488
1.9568688
1.9583988
1.9644988
1.9644988
1.9675588
1.9629788
1.9583988
1.9644988
1.9690788
1.9675588
1.9675588
1.9767088
1.9629788
1.9583988
1.9629788
1.9644988
1.9690788
1.9599288
1.9599288
1.9583988
1.9568688
1.9568688
1.9675588
1.9690788
1.9675588
1.9690788
1.9583988
1.9629788
1.9614488
1.9675588
1.9706088
1.9675588
1.9675588
1.9706088
1.9690788
1.9706088
1.9675588
1.9644988
1.9583988
1.9538188
1.9675588
1.9644988
1.9690788
1.9675588
1.9644988
1.9629788
1.9599288
1.9568688
1.9767088
1.9873888
1.9812888
1.9782388
1.9782388
1.9706088
1.9629788
1.9644988
1.9644988
1.9507688
1.9385588
1.9370388
1.9355088
1.9400888
1.9568688
1.9568688
1.9675588
1.9751788
1.9736588
1.9690788
1.9675588
1.9644988
1.9629788
1.9675588
1.9675588
1.9599288
1.9583988
1.9675588
1.9690788
1.9675588
1.9736588
1.9751788
1.9706088
1.9644988
1.9644988
1.9675588
1.9629788
1.9675588
1.9629788
1.9675588
1.9629788
1.9629788
1.9553488
1.9461888
1.9446688
1.9461888
1.9477188
1.9522988
1.9568688
1.9599288
1.9629788
1.9568688
1.9553488
1.9568688
1.9538188
1.9553488
1.9706088
1.9736588
1.9797588
1.9782388
1.9782388
1.9843388
1.9828088
1.9828088
1.9843388
1.9797588
1.9736588
1.9690788
1.9706088
1.9629788
1.9614488
1.9614488
1.9568688
1.9553488
1.9614488
1.9583988
1.9706088
1.9644988
1.9629788
1.9614488
1.9721288
1.9751788
1.9736588
1.9736588
1.9751788
1.9706088
1.9690788
1.9706088
1.9721288
1.9706088
1.9644988
1.9599288
1.9599288
1.9599288
1.9675588
1.9690788
1.9690788
1.9690788
1.9706088
1.9721288
1.9706088
1.9706088
1.9706088
1.9736588
1.9736588
1.9690788
1.9690788
1.9644988
1.9629788
1.9690788
1.9721288
1.9980688
2.0087488
2.0041788
1.9919688
1.9797588
1.9706088
1.9568688
1.9583988
1.9477188
1.9370388
1.9355088
1.9309288
1.9416188
1.9507688
1.9583988
1.9583988
1.9538188
1.9583988
1.9629788
1.9721288
1.9767088
1.9782388
1.9782388
1.9812888
1.9843388
1.9812888
1.9767088
1.9706088
1.9675588
1.9629788
1.9675588
1.9751788
1.9767088
1.9767088
1.9721288
1.9690788
1.9583988
1.9461888
1.9446688
1.9461888
1.9522988
1.9599288
1.9614488
1.9568688
1.9553488
1.9522988
1.9461888
1.9522988
1.9477188
1.9553488
1.9644988
1.9614488
1.9706088
1.9767088
1.9767088
1.9782388
1.9812888
1.9843388
1.9828088
1.9782388
1.9751788
1.9706088
1.9843388
1.9934988
1.9889188
1.9904388
1.9873888
1.9858688
1.9919688
1.9904388
1.9889188
1.9843388
1.9782388
1.9736588
1.9644988
1.9583988
1.9629788
1.9614488
1.9629788
1.9736588
1.9797588
1.9858688
1.9751788
1.9767088
1.9751788
1.9706088
1.9706088
1.9675588
1.9675588
1.9690788
1.9644988
1.9568688
1.9706088
1.9751788
1.9797588
1.9736588
1.9706088
1.9690788
1.9644988
1.9706088
1.9690788
1.9644988
1.9812888
1.9919688
2.0011188
1.9889188
1.9828088
1.9828088
1.9767088
1.9812888
1.9721288
1.9522988
1.9400888
1.9385588
1.9461888
1.9461888
1.9461888
1.9492388
1.9629788
1.9782388
1.9797588
1.9797588
1.9782388
1.9797588
1.9812888
1.9721288
1.9675588
1.9690788
1.9675588
1.9706088
1.9675588
1.9690788
1.9690788
1.9644988
1.9690788
1.9675588
1.9644988
1.9614488
1.9644988
1.9736588
1.9782388
1.9767088
1.9858688
1.9934988
1.9904388
1.9858688
1.9812888
1.9797588
1.9843388
1.9873888
1.9828088
1.9843388
1.9812888
1.9782388
1.9736588
1.9828088
1.9858688
1.9858688
1.9782388
1.9706088
1.9614488
1.9522988
1.9583988
1.9629788
1.9721288
1.9736588
1.9706088
1.9675588
1.9690788
1.9706088
1.9782388
1.9797588
1.9751788
1.9782388
1.9736588
1.9736588
1.9812888
1.9828088
1.9889188
1.9843388
1.9843388
1.9843388
1.9751788
1.9751788
1.9675588
1.9721288
1.9751788
1.9995988
2.0194388
2.0179088
2.0118088
2.0026488
2.0026488
1.9904388
1.9858688
1.9706088
1.9538188
1.9522988
1.9522988
1.9507688
1.9522988
1.9568688
1.9599288
1.9751788
1.9950188
1.9873888
1.9782388
1.9797588
1.9721288
1.9736588
1.9751788
1.9797588
1.9828088
1.9782388
1.9736588
1.9690788
1.9644988
1.9629788
1.9644988
1.9675588
1.9721288
1.9782388
1.9858688
1.9858688
1.9904388
1.9995988
1.9904388
1.9767088
1.9721288
1.9751788
1.9767088
1.9767088
1.9767088
1.9812888
1.9751788
1.9706088
1.9706088
1.9721288
1.9828088
1.9843388
1.9858688
1.9950188
1.9995988
1.9904388
1.9858688
1.9782388
1.9782388
1.9812888
1.9797588
1.9767088
1.9675588
1.9721288
1.9690788
1.9706088
1.9767088
1.9812888
1.9843388
1.9873888
1.9843388
1.9843388
1.9782388
1.9767088
1.9782388
1.9782388
1.9843388
1.9904388
1.9919688
1.9904388
1.9980688
1.9919688
1.9904388
1.9889188
1.9873888
1.9828088
1.9828088
1.9782388
1.9782388
1.9797588
1.9812888
1.9767088
1.9797588
1.9843388
1.9767088
1.9797588
1.9797588
1.9904388
2.0118088
2.0148588
2.0148588
2.0118088
2.0087488
1.9950188
1.9904388
1.9828088
1.9767088
1.9629788
1.9553488
1.9583988
1.9614488
1.9706088
1.9721288
1.9721288
1.9828088
1.9858688
1.9843388
1.9873888
1.9873888
1.9797588
1.9767088
1.9797588
1.9782388
1.9767088
1.9767088
1.9812888
1.9873888
1.9934988
1.9919688
1.9950188
1.9889188
1.9843388
1.9919688
1.9873888
1.9812888
1.9721288
1.9690788
1.9614488
1.9583988
1.9553488
1.9568688
1.9644988
1.9797588
1.9980688
1.9889188
1.9843388
1.9843388
1.9858688
1.9889188
1.9889188
1.9873888
1.9889188
1.9858688
1.9797588
1.9797588
1.9782388
1.9767088
1.9706088
1.9812888
1.9934988
1.9904388
1.9858688
1.9873888
1.9782388
1.9812888
1.9889188
1.9873888
1.9858688
1.9843388
1.9828088
1.9736588
1.9751788
1.9812888
1.9843388
1.9904388
2.0026488
2.0041788
2.0102788
2.0163788
2.0240088
2.0331688
2.0255388
2.0209588
2.0163788
2.0072288
2.0041788
1.9980688
1.9904388
1.9721288
1.9553488
1.9507688
1.9538188
1.9614488
1.9782388
1.9782388
1.9889188
1.9950188
1.9980688
1.9919688
1.9889188
1.9858688
1.9904388
1.9934988
1.9873888
1.9858688
1.9782388
1.9843388
1.9797588
1.9797588
1.9858688
1.9919688
1.9843388
1.9843388
1.9873888
1.9843388
1.9812888
1.9797588
1.9843388
1.9843388
1.9858688
1.9828088
1.9797588
1.9843388
1.9858688
1.9934988
1.9934988
1.9873888
1.9828088
1.9767088
1.9767088
1.9797588
1.9782388
1.9828088
1.9843388
1.9858688
1.9889188
1.9934988
1.9843388
1.9843388
1.9812888
1.9812888
1.9843388
1.9873888
1.9828088
1.9843388
1.9873888
1.9889188
1.9919688
1.9950188
1.9919688
1.9934988
1.9873888
1.9782388
1.9751788
1.9751788
1.9706088
1.9736588
1.9736588
1.9767088
1.9828088
1.9843388
1.9904388
1.9934988
1.9889188
1.9919688
1.9858688
1.9919688
1.9889188
1.9919688
1.9858688
1.9843388
1.9873888
1.9843388
1.9843388
1.9828088
1.9828088
1.9843388
1.9919688
1.9934988
1.9950188
1.9904388
1.9904388
1.9919688
1.9995988
2.0056988
2.0072288
2.0026488
2.0011188
1.9919688
1.9980688
1.9950188
1.9934988
1.9950188
1.9919688
1.9904388
1.9934988
1.9919688
1.9904388
1.9889188
1.9980688
2.0179088
2.0224888
2.0240088
2.0133288
2.0102788
2.0011188
2.0056988
2.0011188
2.0026488
1.9919688
1.9873888
1.9782388
1.9782388
1.9721288
1.9690788
1.9736588
1.9858688
1.9904388
1.9843388
1.9858688
1.9843388
1.9873888
1.9904388
1.9904388
1.9904388
2.0011188
2.0041788
2.0011188
1.9980688
1.9934988
1.9950188
1.9995988
2.0087488
2.0118088
2.0102788
1.9980688
1.9934988
1.9919688
1.9858688
1.9934988
1.9934988
1.9919688
1.9843388
1.9721288
1.9614488
1.9629788
1.9706088
1.9828088
1.9797588
1.9782388
1.9782388
1.9812888
1.9843388
1.9828088
1.9889188
1.9904388
1.9950188
1.9980688
2.0011188
2.0056988
2.0041788
2.0087488
2.0118088
2.0133288
2.0102788
2.0072288
2.0087488
2.0056988
2.0041788
2.0041788
2.0011188
2.0011188
1.9980688
1.9934988
1.9995988
2.0011188
2.0041788
2.0026488
2.0026488
2.0011188
1.9919688
1.9873888
1.9858688
1.9858688
1.9812888
1.9858688
1.9904388
1.9934988
1.9980688
1.9934988
1.9919688
1.9919688
2.0118088
2.0209588
2.0285888
2.0285888
2.0301188
2.0224888
2.0102788
2.0102788
2.0072288
2.0026488
1.9889188
1.9843388
1.9812888
1.9797588
1.9782388
1.9858688
1.9919688
1.9980688
1.9904388
1.9797588
1.9721288
1.9797588
1.9843388
1.9858688
1.9950188
2.0026488
2.0026488
2.0041788
2.0087488
2.0102788
2.0072288
1.9995988
1.9950188
1.9934988
1.9919688
2.0011188
2.0056988
1.9934988
1.9904388
1.9889188
1.9980688
2.0011188
1.9934988
1.9980688
1.9980688
2.0026488
1.9980688
1.9950188
1.9904388
1.9873888
1.9889188
1.9858688
1.9843388
1.9873888
1.9843388
1.9904388
1.9980688
2.0056988
2.0102788
2.0118088
2.0118088
2.0041788
2.0072288
2.0026488
1.9934988
1.9904388
1.9934988
1.9919688
1.9828088
1.9767088
1.9782388
1.9797588
1.9843388
1.9858688
1.9919688
1.9934988
1.9950188
1.9950188
1.9995988
2.0041788
2.0026488
1.9950188
2.0072288
2.0179088
2.0194388
2.0133288
2.0163788
2.0087488
2.0072288
1.9980688
1.9950188
2.0041788
2.0301188
2.0468988
2.0499488
2.0346888
2.0255388
2.0194388
2.0087488
1.9934988
1.9904388
1.9812888
1.9767088
1.9721288
1.9721288
1.9751788
1.9767088
1.9812888
1.9934988
2.0041788
2.0102788
2.0072288
2.0102788
2.0072288
2.0102788
2.0011188
1.9950188
1.9950188
1.9934988
1.9919688
1.9950188
1.9919688
1.9889188
1.9889188
1.9873888
1.9858688
1.9919688
1.9995988
1.9980688
2.0026488
2.0041788
1.9995988
1.9950188
1.9919688
1.9950188
1.9995988
2.0026488
2.0056988
1.9995988
1.9934988
1.9889188
1.9904388
1.9919688
1.9995988
2.0056988
2.0087488
2.0102788
2.0148588
2.0011188
1.9950188
1.9934988
1.9889188
1.9919688
2.0041788
2.0072288
2.0056988
2.0087488
1.9995988
1.9950188
1.9934988
1.9858688
1.9858688
1.9934988
2.0026488
2.0041788
1.9934988
1.9934988
1.9950188
1.9995988
2.0011188
1.9980688
1.9934988
1.9980688
2.0041788
2.0087488
2.0056988
2.0011188
2.0026488
1.9995988
2.0056988
2.0087488
2.0240088
2.0438488
2.0392688
2.0392688
2.0346888
2.0331688
2.0148588
1.9995988
1.9858688
1.9706088
1.9614488
1.9583988
1.9675588
1.9706088
1.9858688
1.9950188
2.0011188
2.0179088
2.0118088
2.0011188
2.0011188
1.9934988
1.9950188
1.9873888
1.9858688
1.9873888
1.9950188
1.9980688
1.9950188
2.0011188
2.0056988
2.0026488
1.9995988
2.0041788
1.9995988
1.9995988
1.9950188
2.0026488
1.9950188
1.9934988
1.9873888
1.9873888
1.9919688
2.0011188
1.9980688
1.9904388
1.9858688
1.9782388
1.9828088
1.9873888
1.9843388
1.9843388
1.9843388
1.9843388
1.9873888
1.9980688
1.9934988
2.0041788
2.0118088
2.0118088
2.0102788
2.0026488
1.9995988
1.9934988
1.9904388
1.9919688
1.9980688
2.0011188
1.9995988
1.9995988
2.0026488
2.0011188
1.9919688
1.9889188
2.0026488
2.0118088
2.0087488
2.0056988
2.0056988
2.0011188
1.9980688
1.9950188
2.0026488
2.0087488
2.0118088
2.0087488
2.0026488
2.0056988
2.0118088
2.0163788
2.0163788
2.0133288
2.0148588
2.0087488
2.0041788
1.9919688
1.9934988
1.9828088
1.9812888
1.9843388
1.9858688
1.9873888
1.9934988
1.9980688
1.9995988
2.0041788
2.0011188
2.0041788
2.0041788
2.0087488
2.0087488
2.0056988
2.0056988
2.0041788
2.0072288
2.0072288
2.0026488
2.0011188
1.9995988
1.9980688
1.9980688
1.9995988
1.9980688
1.9995988
1.9934988
1.9950188
2.0118088
2.0316388
2.0331688
2.0301188
2.0179088
2.0118088
2.0026488
1.9934988
1.9889188
1.9782388
1.9614488
1.9553488
1.9492388
1.9553488
1.9751788
1.9858688
1.9950188
2.0148588
2.0102788
2.0056988
2.0056988
1.9980688
1.9934988
1.9919688
1.9889188
1.9934988
2.0026488
2.0072288
2.0102788
2.0118088
2.0148588
2.0148588
2.0118088
2.0133288
1.9995988
1.9904388
1.9904388
1.9934988
1.9980688
2.0056988
2.0118088
2.0118088
2.0102788
2.0041788
2.0056988
2.0041788
2.0072288
2.0087488
2.0163788
2.0148588
2.0118088
2.0072288
1.9995988
1.9950188
1.9950188
1.9995988
2.0056988
2.0056988
2.0041788
2.0087488
2.0087488
2.0056988
2.0056988
2.0041788
1.9980688
1.9950188
1.9995988
2.0011188
2.0087488
2.0118088
2.0133288
2.0072288
2.0072288
2.0102788
2.0041788
2.0026488
2.0041788
1.9995988
1.9980688
1.9919688
1.9889188
1.9889188
1.9828088
1.9858688
1.9889188
1.9873888
1.9904388
1.9843388
1.9873888
1.9934988
2.0011188
2.0026488
2.0087488
2.0056988
2.0026488
2.0056988
2.0026488
2.0056988
2.0026488
2.0072288
2.0209588
2.0301188
2.0255388
2.0224888
2.0072288
2.0056988
1.9995988
2.0072288
1.9995988
1.9873888
1.9675588
1.9614488
1.9706088
1.9782388
1.9919688
1.9950188
2.0072288
2.0056988
2.0041788
2.0118088
2.0087488
2.0102788
2.0118088
2.0179088
2.0194388
2.0179088
2.0163788
2.0179088
2.0041788
1.9995988
2.0056988
2.0087488
2.0011188
1.9995988
1.9950188
1.9980688
1.9950188
1.9950188
2.0026488
2.0056988
2.0102788
2.0133288
2.0072288
2.0087488
2.0087488
1.9934988
1.9919688
1.9873888
1.9873888
1.9980688
2.0041788
2.0041788
2.0072288
2.0072288
2.0026488
2.0026488
1.9980688
1.9980688
1.9919688
1.9950188
1.9995988
1.9950188
1.9950188
2.0041788
2.0072288
2.0011188
2.0026488
2.0011188
2.0118088
2.0072288
2.0041788
2.0026488
2.0087488
2.0209588
2.0194388
2.0148588
2.0194388
2.0163788
2.0102788
2.0072288
2.0026488
2.0026488
2.0102788
2.0041788
1.9950188
1.9873888
1.9858688
1.9980688
2.0194388
2.0240088
2.0331688
2.0240088
2.0209588
2.0118088
2.0072288
1.9950188
1.9904388
1.9797588
1.9828088
1.9812888
1.9751788
1.9843388
1.9950188
2.0041788
2.0056988
2.0072288
2.0072288
2.0026488
2.0011188
1.9980688
1.9950188
1.9950188
1.9980688
2.0056988
2.0102788
2.0209588
2.0224888
2.0148588
2.0087488
2.0026488
2.0072288
2.0056988
2.0179088
2.0179088
2.0133288
2.0118088
2.0148588
2.0148588
2.0056988
2.0026488
1.9995988
1.9858688
1.9858688
1.9889188
1.9934988
1.9858688
1.9858688
1.9904388
1.9980688
2.0041788
2.0102788
2.0087488
2.0087488
2.0041788
2.0056988
2.0011188
2.0056988
2.0102788
2.0087488
2.0194388
2.0301188
2.0224888
2.0163788
2.0118088
2.0026488
2.0087488
2.0102788
2.0133288
2.0133288
2.0133288
2.0133288
2.0148588
2.0148588
2.0163788
2.0194388
2.0194388
2.0194388
2.0179088
2.0148588
2.0118088
2.0087488
2.0056988
2.0041788
2.0011188
1.9950188
2.0011188
2.0011188
2.0011188
2.0041788
2.0087488
2.0072288
2.0072288
2.0056988
2.0041788
1.9950188
1.9980688
1.9950188
1.9934988
1.9980688
1.9980688
2.0011188
1.9995988
2.0026488
2.0072288
1.9980688
1.9950188
1.9980688
2.0102788
2.0194388
2.0285888
2.0255388
2.0285888
2.0407988
2.0453788
2.0362188
2.0346888
2.0285888
2.0194388
2.0179088
2.0163788
2.0041788
1.9904388
1.9797588
1.9767088
1.9873888
1.9950188
1.9950188
1.9980688
2.0163788
2.0163788
2.0056988
2.0011188
2.0011188
2.0087488
2.0102788
2.0087488
2.0133288
2.0224888
2.0194388
2.0163788
2.0087488
2.0011188
1.9995988
2.0087488
2.0072288
2.0056988
1.9995988
1.9995988
2.0056988
2.0102788
2.0072288
2.0118088
2.0148588
2.0163788
2.0194388
2.0148588
2.0209588
2.0133288
2.0056988
2.0102788
2.0194388
2.0209588
2.0163788
2.0179088
2.0133288
2.0163788
2.0133288
2.0179088
2.0133288
2.0148588
2.0163788
2.0133288
2.0118088
2.0118088
2.0163788
2.0118088
2.0102788
2.0072288
2.0056988
1.9980688
1.9995988
2.0011188
2.0041788
2.0011188
2.0026488
1.9995988
1.9995988
2.0026488
2.0026488
2.0133288
2.0224888
2.0148588
2.0087488
2.0072288
2.0102788
2.0087488
2.0102788
2.0072288
2.0133288
2.0194388
2.0285888
2.0484288
2.0652088
2.0652088
2.0545288
2.0423188
2.0346888
2.0194388
2.0102788
1.9995988
1.9889188
1.9843388
1.9889188
1.9904388
1.9950188
2.0056988
2.0087488
2.0163788
2.0224888
2.0163788
2.0118088
2.0118088
2.0087488
2.0118088
2.0056988
2.0026488
2.0072288
2.0163788
2.0209588
2.0072288
1.9995988
2.0011188
2.0056988
2.0118088
2.0194388
2.0255388
2.0362188
2.0377488
2.0301188
2.0331688
2.0255388
2.0179088
2.0087488
2.0148588
2.0194388
2.0148588
2.0179088
2.0133288
2.0179088
2.0179088
2.0240088
2.0240088
2.0209588
2.0194388
2.0224888
2.0224888
2.0224888
2.0224888
2.0163788
2.0194388
2.0179088
2.0179088
2.0179088
2.0133288
2.0102788
2.0133288
2.0163788
2.0163788
2.0209588
2.0194388
2.0209588
2.0194388
2.0255388
2.0255388
2.0301188
2.0362188
2.0255388
2.0285888
2.0301188
2.0240088
2.0194388
2.0179088
2.0194388
2.0209588
2.0194388
2.0224888
2.0285888
2.0362188
2.0377488
2.0362188
2.0224888
2.0224888
2.0301188
2.0316388
2.0224888
2.0484288
2.0606288
2.0575788
2.0484288
2.0453788
2.0438488
2.0346888
2.0224888
2.0179088
2.0056988
1.9828088
1.9782388
1.9797588
1.9980688
2.0133288
2.0163788
2.0224888
2.0468988
2.0346888
2.0209588
2.0255388
2.0316388
2.0346888
2.0255388
2.0240088
2.0240088
2.0194388
2.0148588
2.0087488
1.9995988
1.9980688
1.9980688
2.0041788
2.0118088
2.0179088
2.0240088
2.0301188
2.0346888
2.0285888
2.0255388
2.0240088
2.0209588
2.0240088
2.0377488
2.0392688
2.0255388
2.0209588
2.0194388
2.0179088
2.0179088
2.0163788
2.0194388
2.0163788
2.0148588
2.0148588
2.0163788
2.0163788
2.0163788
2.0240088
2.0285888
2.0240088
2.0209588
2.0194388
2.0179088
2.0163788
2.0224888
2.0301188
2.0362188
2.0331688
2.0301188
2.0346888
2.0346888
2.0331688
2.0377488
2.0407988
2.0407988
2.0362188
2.0285888
2.0179088
2.0194388
2.0194388
2.0240088
2.0209588
2.0133288
2.0056988
2.0087488
2.0255388
2.0514788
2.0560588
2.0575788
2.0560588
2.0606288
2.0423188
2.0377488
2.0285888
2.0148588
2.0011188
2.0056988
2.0133288
2.0148588
2.0133288
2.0194388
2.0285888
2.0331688
2.0224888
2.0209588
2.0148588
2.0148588
2.0209588
2.0209588
2.0194388
2.0179088
2.0163788
2.0209588
2.0224888
2.0224888
2.0194388
2.0148588
2.0194388
2.0163788
2.0179088
2.0224888
2.0209588
2.0316388
2.0316388
2.0240088
2.0224888
2.0240088
2.0240088
2.0240088
2.0194388
2.0179088
2.0072288
2.0072288
2.0026488
2.0072288
2.0072288
2.0102788
2.0316388
2.0423188
2.0423188
2.0453788
2.0377488
2.0362188
2.0316388
2.0255388
2.0255388
2.0240088
2.0240088
2.0240088
2.0301188
2.0377488
2.0316388
2.0316388
2.0255388
2.0331688
2.0392688
2.0468988
2.0423188
2.0407988
2.0377488
2.0423188
2.0316388
2.0240088
2.0301188
2.0255388
2.0301188
2.0362188
2.0423188
2.0438488
2.0407988
2.0362188
2.0346888
2.0316388
2.0209588
2.0194388
2.0224888
2.0163788
2.0148588
2.0179088
2.0255388
2.0301188
2.0224888
2.0163788
2.0179088
2.0285888
2.0194388
2.0179088
2.0194388
2.0179088
2.0346888
2.0499488
2.0575788
2.0560588
2.0560588
2.0545288
2.0423188
2.0377488
2.0316388
2.0179088
2.0056988
1.9950188
1.9919688
1.9934988
2.0026488
2.0072288
2.0179088
2.0346888
2.0407988
2.0377488
2.0331688
2.0407988
2.0316388
2.0316388
2.0285888
2.0255388
2.0331688
2.0285888
2.0316388
2.0301188
2.0346888
2.0316388
2.0377488
2.0407988
2.0423188
2.0392688
2.0362188
2.0331688
2.0255388
2.0316388
2.0285888
2.0362188
2.0392688
2.0255388
2.0194388
2.0087488
2.0102788
2.0133288
2.0118088
2.0194388
2.0285888
2.0316388
2.0331688
2.0407988
2.0453788
2.0392688
2.0316388
2.0331688
2.0377488
2.0392688
2.0438488
2.0407988
2.0301188
2.0346888
2.0362188
2.0362188
2.0377488
2.0362188
2.0316388
2.0392688
2.0377488
2.0392688
2.0423188
2.0484288
2.0514788
2.0484288
2.0423188
2.0392688
2.0377488
2.0301188
2.0362188
2.0346888
2.0346888
2.0346888
2.0346888
2.0301188
2.0316388
2.0346888
2.0331688
2.0331688
2.0377488
2.0423188
2.0407988
2.0362188
2.0423188
2.0468988
2.0392688
2.0423188
2.0468988
2.0468988
2.0499488
2.0499488
2.0728388
2.0819988
2.0819988
2.0697888
2.0575788
2.0514788
2.0423188
2.0285888
2.0072288
1.9889188
1.9858688
1.9950188
2.0026488
2.0072288
2.0118088
2.0240088
2.0392688
2.0514788
2.0484288
2.0438488
2.0392688
2.0331688
2.0362188
2.0377488
2.0392688
2.0331688
2.0316388
2.0316388
2.0301188
2.0224888
2.0209588
2.0194388
2.0163788
2.0240088
2.0392688
2.0438488
2.0392688
2.0377488
2.0423188
2.0499488
2.0438488
2.0377488
2.0331688
2.0362188
2.0362188
2.0362188
2.0392688
2.0377488
2.0407988
2.0377488
2.0377488
2.0392688
2.0392688
2.0545288
2.0514788
2.0529988
2.0575788
2.0606288
2.0545288
2.0499488
2.0438488
2.0407988
2.0346888
2.0255388
2.0285888
2.0301188
2.0331688
2.0331688
2.0346888
2.0423188
2.0392688
2.0346888
2.0407988
2.0392688
2.0346888
2.0346888
2.0392688
2.0377488
2.0407988
2.0423188
2.0438488
2.0407988
2.0407988
2.0392688
2.0392688
2.0407988
2.0468988
2.0453788
2.0377488
2.0346888
2.0346888
2.0362188
2.0423188
2.0453788
2.0362188
2.0362188
2.0346888
2.0316388
2.0362188
2.0392688
2.0362188
2.0377488
2.0407988
2.0377488
2.0346888
2.0362188
2.0468988
2.0514788
2.0545288
2.0804688
2.0987788
2.1033588
2.0987788
2.0926788
2.0743688
2.0529988
2.0407988
2.0240088
2.0133288
2.0072288
2.0011188
2.0041788
2.0056988
2.0148588
2.0148588
2.0255388
2.0468988
2.0423188
2.0346888
2.0316388
2.0301188
2.0331688
2.0331688
2.0316388
2.0377488
2.0423188
2.0407988
2.0438488
2.0423188
2.0377488
2.0331688
2.0377488
2.0392688
2.0484288
2.0484288
2.0560588
2.0621588
2.0529988
2.0545288
2.0514788
2.0529988
2.0499488
2.0606288
2.0621588
2.0606288
2.0560588
2.0514788
2.0468988
2.0407988
2.0346888
2.0316388
2.0316388
2.0346888
2.0362188
2.0423188
2.0423188
2.0423188
2.0423188
2.0438488
2.0407988
2.0407988
2.0301188
2.0194388
2.0209588
2.0224888
2.0240088
2.0301188
2.0438488
2.0514788
2.0499488
2.0468988
2.0499488
2.0545288
2.0499488
2.0453788
2.0606288
2.0621588
2.0621588
2.0606288
2.0560588
2.0499488
2.0484288
2.0438488
2.0484288
2.0453788
2.0468988
2.0453788
2.0392688
2.0392688
2.0392688
2.0423188
2.0423188
2.0438488
2.0423188
2.0499488
2.0499488
2.0484288
2.0453788
2.0468988
2.0468988
2.0499488
2.0453788
2.0438488
2.0407988
2.0423188
2.0392688
2.0362188
2.0377488
2.0316388
2.0377488
2.0362188
2.0407988
2.0438488
2.0453788
2.0529988
2.0499488
2.0499488
2.0438488
2.0682588
2.0743688
2.0789388
2.0758888
2.0743688
2.0621588
2.0484288
2.0423188
2.0362188
2.0255388
2.0224888
2.0224888
2.0316388
2.0346888
2.0377488
2.0362188
2.0392688
2.0514788
2.0453788
2.0438488
2.0438488
2.0484288
2.0453788
2.0438488
2.0499488
2.0468988
2.0514788
2.0468988
2.0468988
2.0468988
2.0423188
2.0392688
2.0407988
2.0331688
2.0301188
2.0255388
2.0209588
2.0102788
2.0133288
2.0194388
2.0316388
2.0438488
2.0407988
2.0468988
2.0453788
2.0484288
2.0468988
2.0468988
2.0652088
2.0652088
2.0560588
2.0468988
2.0514788
2.0560588
2.0606288
2.0575788
2.0606288
2.0652088
2.0606288
2.0560588
2.0606288
2.0606288
2.0667388
2.0636888
2.0606288
2.0545288
2.0484288
2.0529988
2.0545288
2.0636888
2.0636888
2.0636888
2.0636888
2.0545288
2.0529988
2.0514788
2.0468988
2.0484288
2.0484288
2.0438488
2.0407988
2.0423188
2.0468988
2.0560588
2.0560588
2.0560588
2.0514788
2.0499488
2.0423188
2.0468988
2.0468988
2.0529988
2.0468988
2.0468988
2.0468988
2.0484288
2.0621588
2.0575788
2.0560588
2.0575788
2.0545288
2.0758888
2.0865688
2.0865688
2.0835188
2.0758888
2.0728388
2.0667388
2.0575788
2.0514788
2.0407988
2.0316388
2.0255388
2.0255388
2.0316388
2.0392688
2.0423188
2.0499488
2.0575788
2.0499488
2.0468988
2.0453788
2.0377488
2.0392688
2.0438488
2.0392688
2.0377488
2.0346888
2.0392688
2.0346888
2.0362188
2.0453788
2.0514788
2.0545288
2.0606288
2.0682588
2.0682588
2.0636888
2.0575788
2.0606288
2.0499488
2.0407988
2.0377488
2.0423188
2.0423188
2.0514788
2.0575788
2.0560588
2.0575788
2.0545288
2.0667388
2.0743688
2.0697888
2.0575788
2.0575788
2.0560588
2.0636888
2.0652088
2.0667388
2.0713188
2.0652088
2.0682588
2.0606288
2.0560588
2.0560588
2.0636888
2.0652088
2.0667388
2.0652088
2.0667388
2.0697888
2.0667388
2.0652088
2.0636888
2.0636888
2.0560588
2.0621588
2.0560588
2.0575788
2.0606288
2.0636888
2.0606288
2.0575788
2.0545288
2.0560588
2.0575788
2.0575788
2.0560588
2.0560588
2.0575788
2.0667388
2.0636888
2.0575788
2.0652088
2.0682588
2.0850488
2.1003088
2.1003088
2.0911488
2.0804688
2.0682588
2.0652088
2.0606288
2.0468988
2.0331688
2.0163788
2.0148588
2.0179088
2.0209588
2.0209588
2.0301188
2.0377488
2.0499488
2.0484288
2.0377488
2.0346888
2.0255388
2.0331688
2.0453788
2.0484288
2.0453788
2.0407988
2.0499488
2.0667388
2.0774188
2.0804688
2.0713188
2.0682588
2.0621588
2.0652088
2.0697888
2.0621588
2.0484288
2.0423188
2.0514788
2.0545288
2.0484288
2.0545288
2.0789388
2.0758888
2.0774188
2.0819988
2.0819988
2.0697888
2.0682588
2.0667388
2.0667388
2.0636888
2.0667388
2.0697888
2.0804688
2.0789388
2.0728388
2.0713188
2.0728388
2.0682588
2.0606288
2.0575788
2.0545288
2.0529988
2.0545288
2.0545288
2.0606288
2.0621588
2.0621588
2.0667388
2.0682588
2.0667388
2.0682588
2.0667388
2.0667388
2.0621588
2.0621588
2.0606288
2.0606288
2.0529988
2.0499488
2.0529988
2.0529988
2.0514788
2.0499488
2.0484288
2.0453788
2.0560588
2.0667388
2.0697888
2.0652088
2.0652088
2.0697888
2.0758888
2.0728388
2.0713188
2.0697888
2.0682588
2.0652088
2.0636888
2.0560588
2.0545288
2.0514788
2.0499488
2.0545288
2.0774188
2.0880988
2.0957288
2.0911488
2.0850488
2.0789388
2.0652088
2.0606288
2.0514788
2.0392688
2.0316388
2.0301188
2.0301188
2.0377488
2.0423188
2.0453788
2.0606288
2.0682588
2.0667388
2.0652088
2.0560588
2.0529988
2.0545288
2.0529988
2.0575788
2.0575788
2.0575788
2.0514788
2.0499488
2.0529988
2.0499488
2.0438488
2.0438488
2.0499488
2.0606288
2.0713188
2.0713188
2.0682588
2.0682588
2.0667388
2.0667388
2.0606288
2.0652088
2.0713188
2.0728388
2.0728388
2.0667388
2.0682588
2.0652088
2.0713188
2.0667388
2.0728388
2.0667388
2.0697888
2.0636888
2.0621588
2.0606288
2.0606288
2.0621588
2.0545288
2.0484288
2.0438488
2.0484288
2.0636888
2.0758888
2.0850488
2.0743688
2.0697888
2.0652088
2.0667388
2.0713188
2.0697888
2.0652088
2.0652088
2.0575788
2.0606288
2.0575788
2.0667388
2.0667388
2.0636888
2.0636888
2.0621588
2.0697888
2.0667388
2.0682588
2.0652088
2.0652088
2.0667388
2.0713188
2.0713188
2.0743688
2.0667388
2.0713188
2.0682588
2.0667388
2.0667388
2.0667388
2.0652088
2.0636888
2.0652088
2.0682588
2.0652088
2.0636888
2.0621588
2.0606288
2.0667388
2.0697888
2.0743688
2.0758888
2.0789388
2.0758888
2.0743688
2.0713188
2.0652088
2.0621588
2.0606288
2.0606288
2.0621588
2.0560588
2.0545288
2.0667388
2.0697888
2.0743688
2.0713188
2.0667388
2.0621588
2.0606288
2.0652088
2.0667388
2.0682588
2.0667388
2.0758888
2.0865688
2.0865688
2.0880988
2.0774188
2.0819988
2.0743688
2.0667388
2.0499488
2.0407988
2.0240088
2.0209588
2.0377488
2.0514788
2.0636888
2.0697888
2.0728388
2.0713188
2.0713188
2.0560588
2.0545288
2.0514788
2.0514788
2.0575788
2.0667388
2.0713188
2.0789388
2.0789388
2.0758888
2.0682588
2.0652088
2.0606288
2.0575788
2.0621588
2.0697888
2.0713188
2.0697888
2.0758888
2.0789388
2.0835188
2.0850488
2.0804688
2.0804688
2.0743688
2.0743688
2.0743688
2.0697888
2.0652088
2.0636888
2.0636888
2.0682588
2.0728388
2.0743688
2.0728388
2.0713188
2.0713188
2.0713188
2.0728388
2.0743688
2.0743688
2.0713188
2.0728388
2.0728388
2.0713188
2.0743688
2.0743688
2.0682588
2.0682588
2.0697888
2.0697888
2.0758888
2.0713188
2.0728388
2.0743688
2.0667388
2.0682588
2.0728388
2.0728388
2.0743688
2.0758888
2.0728388
2.0728388
2.0713188
2.0713188
2.0652088
2.0697888
2.0652088
2.0621588
2.0621588
2.0652088
2.0682588
2.0682588
2.0713188
2.0682588
2.0713188
2.0819988
2.0804688
2.0819988
2.0835188
2.0819988
2.0774188
2.0697888
2.0667388
2.0667388
2.0636888
2.0529988
2.0468988
2.0713188
2.0850488
2.0865688
2.0911488
2.0972588
2.0865688
2.0743688
2.0652088
2.0621588
2.0468988
2.0240088
2.0148588
2.0194388
2.0362188
2.0499488
2.0621588
2.0850488
2.1079388
2.0972588
2.0941988
2.0880988
2.0835188
2.0804688
2.0774188
2.0758888
2.0713188
2.0728388
2.0758888
2.0758888
2.0713188
2.0636888
2.0636888
2.0636888
2.0743688
2.0743688
2.0713188
2.0697888
2.0560588
2.0453788
2.0468988
2.0468988
2.0499488
2.0529988
2.0636888
2.0682588
2.0743688
2.0728388
2.0728388
2.0697888
2.0682588
2.0621588
2.0621588
2.0667388
2.0667388
2.0774188
2.0758888
2.0713188
2.0743688
2.0713188
2.0682588
2.0621588
2.0682588
2.0682588
2.0743688
2.0743688
2.0774188
2.0850488
2.0835188
2.0819988
2.0774188
2.0758888
2.0713188
2.0713188
2.0697888
2.0713188
2.0652088
2.0606288
2.0621588
2.0652088
2.0636888
2.0575788
2.0560588
2.0667388
2.0652088
2.0621588
2.0606288
2.0636888
2.0621588
2.0682588
2.0713188
2.0713188
2.0682588
2.0728388
2.0682588
2.0636888
2.0758888
2.0819988
2.0835188
2.0819988
2.0774188
2.0713188
2.0743688
2.0743688
2.0758888
2.0850488
2.1170888
2.1277688
2.1292988
2.1231988
2.1094588
2.0972588
2.0880988
2.0789388
2.0652088
2.0407988
2.0316388
2.0285888
2.0209588
2.0362188
2.0453788
2.0514788
2.0560588
2.0758888
2.0758888
2.0819988
2.0819988
2.0835188
2.0804688
2.0850488
2.0743688
2.0774188
2.0774188
2.0728388
2.0743688
2.0697888
2.0713188
2.0697888
2.0667388
2.0682588
2.0682588
2.0667388
2.0713188
2.0682588
2.0713188
2.0728388
2.0713188
2.0728388
2.0713188
2.0697888
2.0713188
2.0743688
2.0682588
2.0606288
2.0560588
2.0575788
2.0636888
2.0682588
2.0728388
2.0743688
2.0758888
2.0789388
2.0804688
2.0774188
2.0728388
2.0606288
2.0682588
2.0728388
2.0728388
2.0728388
2.0743688
2.0743688
2.0728388
2.0697888
2.0652088
2.0621588
2.0575788
2.0514788
2.0484288
2.0560588
2.0606288
2.0682588
2.0758888
2.0789388
2.0880988
2.0941988
2.0957288
2.0926788
2.0926788
2.0880988
2.0865688
2.0789388
2.0774188
2.0728388
2.0789388
2.0865688
2.0972588
2.0926788
2.0850488
2.0819988
2.0819988
2.0774188
2.0758888
2.0728388
2.0713188
2.0743688
2.0743688
2.0774188
2.0697888
2.0697888
2.0789388
2.0804688
2.0819988
2.0835188
2.0789388
2.0774188
2.0758888
2.0713188
2.0713188
2.0713188
2.0743688
2.0789388
2.0804688
2.0850488
2.0880988
2.0835188
2.0774188
2.0758888
2.0713188
2.0667388
2.0636888
2.0667388
2.0758888
2.0789388
2.0804688
2.0804688
2.0789388
2.0774188
2.0774188
2.0743688
2.0758888
2.0758888
2.0789388
2.0743688
2.0758888
2.0758888
2.0758888
2.0789388
2.0713188
2.0728388
2.0758888
2.0804688
2.0774188
2.0743688
2.0774188
2.0758888
2.0804688
2.0774188
2.0758888
2.0728388
2.0713188
2.0652088
2.0621588
2.0652088
2.0682588
2.0682588
2.0728388
2.0713188
2.0667388
2.0713188
2.0667388
2.0697888
2.0667388
2.0682588
2.0682588
2.0682588
2.0682588
2.0636888
2.0636888
2.0667388
2.0682588
2.0728388
2.0789388
2.0819988
2.0789388
2.0804688
2.0789388
2.0758888
2.0758888
2.0758888
2.0758888
2.0713188
2.0728388
2.0774188
2.0789388
2.0774188
2.0774188
2.0728388
2.0774188
2.0758888
2.0743688
2.0728388
2.0697888
2.0697888
2.0682588
2.0697888
2.0758888
2.0697888
2.0636888
2.0652088
2.0682588
2.0682588
2.0697888
2.0713188
2.0713188
2.0697888
2.0667388
2.0682588
2.0713188
2.0713188
2.0697888
2.0728388
2.0743688
2.0758888
2.0758888
2.0804688
2.0774188
2.0743688
2.0789388
2.0789388
2.0804688
2.0758888
2.0713188
2.0667388
2.0713188
2.0774188
2.0789388
2.0697888
2.0682588
2.0560588
2.0560588
2.0529988
2.0575788
2.0575788
2.0636888
2.0621588
2.0728388
2.0667388
2.0621588
2.0652088
2.0682588
2.0728388
2.0743688
2.0713188
2.0575788
2.0652088
2.0682588
2.0713188
2.0743688
2.0804688
2.0774188
2.0743688
2.0774188
2.0804688
2.0835188
2.0789388
2.0774188
2.0819988
2.0865688
2.0865688
2.0835188
2.0758888
2.0636888
2.0606288
2.0575788
2.0514788
2.0484288
2.0453788
2.0423188
2.0438488
2.0453788
2.0438488
2.0514788
2.0636888
2.0743688
2.0804688
2.0758888
2.0713188
2.0728388
2.0804688
2.0835188
2.0850488
2.0743688
2.0652088
2.0682588
2.0804688
2.0774188
2.0758888
2.0697888
2.0713188
2.0713188
2.0758888
2.0758888
2.0774188
2.0697888
2.0713188
2.0743688
2.0789388
2.0728388
2.0774188
2.0758888
2.0713188
2.0728388
2.0758888
2.0758888
2.0728388
2.0743688
2.0728388
2.0713188
2.0758888
2.0743688
2.0789388
2.0743688
2.0743688
2.0713188
2.0667388
2.0636888
2.0682588
2.0682588
2.0728388
2.0743688
2.0850488
2.1003088
2.1003088
2.1003088
2.0987788
2.0941988
2.0850488
2.0758888
2.0652088
2.0667388
2.0606288
2.0484288
2.0392688
2.0285888
2.0392688
2.0407988
2.0392688
2.0468988
2.0652088
2.0621588
2.0728388
2.0819988
2.0697888
2.0682588
2.0667388
2.0697888
2.0667388
2.0652088
2.0713188
2.0743688
2.0697888
2.0728388
2.0728388
2.0713188
2.0743688
2.0743688
2.0697888
2.0606288
2.0560588
2.0438488
2.0377488
2.0362188
2.0362188
2.0392688
2.0423188
2.0438488
2.0667388
2.0774188
2.0835188
2.0865688
2.0941988
2.0926788
2.0865688
2.0835188
2.0804688
2.0743688
2.0636888
2.0652088
2.0743688
2.0804688
2.0850488
2.0789388
2.0728388
2.0697888
2.0682588
2.0667388
2.0743688
2.0835188
2.0804688
2.0713188
2.0682588
2.0713188
2.0728388
2.0743688
2.0804688
2.0835188
2.0819988
2.0789388
2.0819988
2.0743688
2.0682588
2.0652088
2.0682588
2.0652088
2.0621588
2.0636888
2.0560588
2.0606288
2.0652088
2.0652088
2.0575788
2.0652088
2.0697888
2.0697888
2.0682588
2.0636888
2.0682588
2.0606288
2.0636888
2.0636888
2.0621588
2.0652088
2.0606288
2.0606288
2.0575788
2.0606288
2.0926788
2.1064088
2.1048788
2.0972588
2.0743688
2.0652088
2.0560588
2.0529988
2.0392688
2.0285888
2.0179088
2.0133288
2.0224888
2.0255388
2.0377488
2.0468988
2.0606288
2.0758888
2.0804688
2.0926788
2.0789388
2.0728388
2.0758888
2.0774188
2.0774188
2.0835188
2.0728388
2.0682588
2.0606288
2.0606288
2.0545288
2.0499488
2.0621588
2.0575788
2.0560588
2.0575788
2.0621588
2.0636888
2.0636888
2.0606288
2.0652088
2.0697888
2.0697888
2.0774188
2.0865688
2.0941988
2.1003088
2.0987788
2.0850488
2.0819988
2.0774188
2.0728388
2.0697888
2.0606288
2.0499488
2.0667388
2.0774188
2.0743688
2.0804688
2.0865688
2.0911488
2.1003088
2.0880988
2.0819988
2.0682588
2.0529988
2.0438488
2.0438488
2.0529988
2.0713188
2.0743688
2.0713188
2.0789388
2.0774188
2.0697888
2.0713188
2.0697888
2.0667388
2.0682588
2.0728388
2.0682588
2.0621588
2.0652088
2.0652088
2.0606288
2.0575788
2.0575788
2.0499488
2.0438488
2.0545288
2.0575788
2.0636888
2.0682588
2.0682588
2.0697888
2.0758888
2.0789388
2.0713188
2.0606288
2.0743688
2.0728388
2.0606288
2.0529988
2.0514788
2.0514788
2.0682588
2.0728388
2.0667388
2.0575788
2.0621588
2.0713188
2.0697888
2.0652088
2.0575788
2.0621588
2.0621588
2.0682588
2.0697888
2.0652088
2.0652088
2.0575788
2.0514788
2.0468988
2.0529988
2.0575788
2.0743688
2.0804688
2.0789388
2.0728388
2.0743688
2.0926788
2.1033588
2.0957288
2.0880988
2.0819988
2.0743688
2.0636888
2.0545288
2.0453788
2.0377488
2.0377488
2.0285888
2.0346888
2.0438488
2.0453788
2.0484288
2.0484288
2.0697888
2.0697888
2.0667388
2.0621588
2.0667388
2.0713188
2.0713188
2.0758888
2.0697888
2.0728388
2.0713188
2.0621588
2.0575788
2.0743688
2.0758888
2.0713188
2.0728388
2.0728388
2.0652088
2.0652088
2.0667388
2.0636888
2.0575788
2.0545288
2.0621588
2.0667388
2.0636888
2.0575788
2.0514788
2.0514788
2.0560588
2.0484288
2.0468988
2.0514788
2.0575788
2.0621588
2.0682588
2.0652088
2.0652088
2.0697888
2.0819988
2.0774188
2.0697888
2.0667388
2.0636888
2.0468988
2.0377488
2.0346888
2.0362188
2.0346888
2.0377488
2.0407988
2.0514788
2.0545288
2.0529988
2.0667388
2.0743688
2.0743688
2.0682588
2.0621588
2.0667388
2.0743688
2.0743688
2.0652088
2.0652088
2.0636888
2.0560588
2.0606288
2.0667388
2.0682588
2.0636888
2.0697888
2.0728388
2.0743688
2.0713188
2.0667388
2.0789388
2.0789388
2.0758888
2.0743688
2.0652088
2.0575788
2.0560588
2.0545288
2.0636888
2.0560588
2.0514788
2.0499488
2.0514788
2.0728388
2.0835188
2.0804688
2.0713188
2.0667388
2.0560588
2.0545288
2.0423188
2.0468988
2.0438488
2.0484288
2.0499488
2.0606288
2.0652088
2.0575788
2.0560588
2.0652088
2.0697888
2.0636888
2.0667388
2.0636888
2.0682588
2.0728388
2.0667388
2.0652088
2.0636888
2.0667388
2.0697888
2.0667388
2.0575788
2.0560588
2.0453788
2.0438488
2.0453788
2.0514788
2.0468988
2.0377488
2.0346888
2.0392688
2.0407988
2.0453788
2.0636888
2.0758888
2.0789388
2.0774188
2.0819988
2.0789388
2.0743688
2.0743688
2.0743688
2.0728388
2.0758888
2.0743688
2.0713188
2.0575788
2.0529988
2.0575788
2.0529988
2.0529988
2.0545288
2.0652088
2.0682588
2.0728388
2.0697888
2.0652088
2.0606288
2.0575788
2.0606288
2.0560588
2.0545288
2.0499488
2.0514788
2.0499488
2.0529988
2.0575788
2.0545288
2.0560588
2.0560588
2.0621588
2.0575788
2.0652088
2.0606288
2.0636888
2.0667388
2.0636888
2.0652088
2.0560588
2.0499488
2.0438488
2.0407988
2.0438488
2.0484288
2.0484288
2.0529988
2.0560588
2.0835188
2.1033588
2.1064088
2.1018288
2.0941988
2.0804688
2.0697888
2.0621588
2.0545288
2.0484288
2.0392688
2.0331688
2.0331688
2.0407988
2.0453788
2.0468988
2.0545288
2.0652088
2.0621588
2.0667388
2.0652088
2.0606288
2.0560588
2.0529988
2.0545288
2.0499488
2.0484288
2.0575788
2.0621588
2.0697888
2.0652088
2.0636888
2.0606288
2.0575788
2.0560588
2.0652088
2.0575788
2.0529988
2.0499488
2.0484288
2.0377488
2.0285888
2.0285888
2.0331688
2.0362188
2.0423188
2.0514788
2.0621588
2.0621588
2.0667388
2.0697888
2.0652088
2.0758888
2.0697888
2.0667388
2.0697888
2.0728388
2.0667388
2.0697888
2.0713188
2.0682588
2.0652088
2.0606288
2.0560588
2.0652088
2.0713188
2.0774188
2.0758888
2.0804688
2.0728388
2.0682588
2.0636888
2.0606288
2.0545288
2.0514788
2.0514788
2.0575788
2.0575788
2.0636888
2.0606288
2.0636888
2.0682588
2.0621588
2.0545288
2.0484288
2.0484288
2.0468988
2.0606288
2.0667388
2.0667388
2.0697888
2.0636888
2.0606288
2.0575788
2.0697888
2.0697888
2.0652088
2.0606288
2.0667388
2.0667388
2.0682588
2.0667388
2.0667388
2.0728388
2.0941988
2.0972588
2.0911488
2.0819988
2.0743688
2.0743688
2.0667388
2.0575788
2.0468988
2.0346888
2.0285888
2.0362188
2.0377488
2.0392688
2.0499488
2.0545288
2.0667388
2.0713188
2.0728388
2.0682588
2.0667388
2.0682588
2.0652088
2.0621588
2.0621588
2.0545288
2.0529988
2.0514788
2.0468988
2.0499488
2.0606288
2.0697888
2.0621588
2.0621588
2.0682588
2.0697888
2.0713188
2.0758888
2.0713188
2.0652088
2.0667388
2.0636888
2.0652088
2.0621588
2.0652088
2.0667388
2.0697888
2.0774188
2.0774188
2.0728388
2.0713188
2.0697888
2.0682588
2.0652088
2.0606288
2.0606288
2.0606288
2.0560588
2.0499488
2.0484288
2.0484288
2.0484288
2.0301188
2.0316388
2.0316388
2.0285888
2.0331688
2.0362188
2.0423188
2.0484288
2.0652088
2.0652088
2.0789388
2.0835188
2.0850488
2.0850488
2.0774188
2.0789388
2.0789388
2.0758888
2.0728388
2.0728388
2.0743688
2.0728388
2.0667388
2.0652088
2.0652088
2.0728388
2.0758888
2.0728388
2.0743688
2.0682588
2.0728388
2.0743688
2.0713188
2.0652088
2.0621588
2.0606288
2.0621588
2.0652088
2.0682588
2.0697888
2.0880988
2.1018288
2.1003088
2.0957288
2.0911488
2.0819988
2.0728388
2.0621588
2.0499488
2.0377488
2.0362188
2.0346888
2.0331688
2.0316388
2.0362188
2.0407988
2.0560588
2.0652088
2.0606288
2.0667388
2.0697888
2.0758888
2.0774188
2.0743688
2.0682588
2.0728388
2.0743688
2.0713188
2.0728388
2.0697888
2.0728388
2.0743688
2.0789388
2.0743688
2.0682588
2.0667388
2.0652088
2.0652088
2.0713188
2.0758888
2.0743688
2.0713188
2.0636888
2.0606288
2.0621588
2.0652088
2.0606288
2.0575788
2.0575788
2.0682588
2.0713188
2.0697888
2.0636888
2.0621588
2.0621588
2.0697888
2.0652088
2.0560588
2.0545288
2.0514788
2.0529988
2.0545288
2.0529988
2.0560588
2.0636888
2.0652088
2.0697888
2.0697888
2.0667388
2.0652088
2.0621588
2.0652088
2.0652088
2.0636888
2.0636888
2.0652088
2.0636888
2.0652088
2.0636888
2.0652088
2.0652088
2.0652088
2.0636888
2.0575788
2.0545288
2.0606288
2.0682588
2.0728388
2.0743688
2.0697888
2.0682588
2.0697888
2.0652088
2.0575788
2.0621588
2.0606288
2.0575788
2.0636888
2.0636888
2.0636888
2.0560588
2.0575788
2.0545288
2.0621588
2.0621588
2.0667388
2.0667388
2.0682588
2.0667388
2.0667388
2.0682588
2.0682588
2.0667388
2.0667388
2.0652088
2.0621588
2.0606288
2.0667388
2.0652088
2.0682588
2.0682588
2.0697888
2.0667388
2.0667388
2.0621588
2.0621588
2.0606288
2.0606288
2.0560588
2.0621588
2.0652088
2.0545288
2.0560588
2.0621588
2.0697888
2.0697888
2.0819988
2.0804688
2.0835188
2.0835188
2.0789388
2.0743688
2.0713188
2.0682588
2.0682588
2.0621588
2.0606288
2.0545288
2.0514788
2.0560588
2.0606288
2.0667388
2.0667388
2.0758888
2.0743688
2.0758888
2.0743688
2.0667388
2.0606288
2.0621588
2.0621588
2.0621588
2.0545288
2.0499488
2.0468988
2.0438488
2.0468988
2.0514788
2.0560588
2.0529988
2.0529988
2.0575788
2.0621588
2.0606288
2.0682588
2.0941988
2.1018288
2.1079388
2.0957288
2.0911488
2.0758888
2.0728388
2.0652088
2.0636888
2.0575788
2.0499488
2.0453788
2.0453788
2.0621588
2.0636888
2.0682588
2.0682588
2.0774188
2.0789388
2.0789388
2.0819988
2.0804688
2.0774188
2.0774188
2.0789388
2.0758888
2.0667388
2.0636888
2.0636888
2.0606288
2.0652088
2.0621588
2.0728388
2.0774188
2.0789388
2.0713188
2.0697888
2.0606288
2.0484288
2.0423188
2.0453788
2.0560588
2.0652088
2.0911488
2.0941988
2.0850488
2.0728388
2.0652088
2.0621588
2.0636888
2.0621588
2.0621588
2.0636888
2.0636888
2.0652088
2.0606288
2.0606288
2.0667388
2.0667388
2.0682588
2.0743688
2.0819988
2.0819988
2.0850488
2.0819988
2.0789388
2.0697888
2.0758888
2.0697888
2.0652088
2.0667388
2.0606288
2.0606288
2.0575788
2.0621588
2.0621588
2.0575788
2.0575788
2.0621588
2.0652088
2.0652088
2.0621588
2.0713188
2.0804688
2.0850488
2.0926788
2.0926788
2.0911488
2.0789388
2.0713188
2.0636888
2.0636888
2.0575788
2.0514788
2.0499488
2.0529988
2.0560588
2.0545288
2.0606288
2.0606288
2.0621588
2.0728388
2.0865688
2.0835188
2.0819988
2.0911488
2.1048788
2.1079388
2.1048788
2.0972588
2.0835188
2.0774188
2.0652088
2.0621588
2.0667388
2.0575788
2.0484288
2.0545288
2.0529988
2.0621588
2.0606288
2.0652088
2.0774188
2.0758888
2.0743688
2.0728388
2.0758888
2.0758888
2.0697888
2.0682588
2.0743688
2.0850488
2.0758888
2.0789388
2.0728388
2.0774188
2.0743688
2.0667388
2.0606288
2.0560588
2.0606288
1.0018528
1.0074762
0.9761877
0.9835241
1.0053711
0.9985727
0.9920888
0.9907860
0.9843445
0.9902852
1.0055858
1.0156473
1.0097030
0.9970294
1.0041297
0.9874611
0.9943598
1.0120597
0.9876284
1.0065572
1.0024808
1.0024994
1.0209294
1.0109033
1.0194963
1.0020879
1.0028777
1.0012277
0.9965187
1.0088405
1.0071948
1.0100434
1.0056889
0.9987957
0.9987228
1.0122752
1.0013872
0.9912087
0.9825556
0.9809967
0.9977076
0.9871865
0.9973054
1.0040325
0.9929883
1.0096145
1.0043853
0.9918824
1.0016148
0.9908747
0.9952903
1.0028955
1.0043071
1.0230226
1.0202156
1.0059602
1.0070079
1.0063728
0.9960855
1.0143417
1.0020116
0.9888950
1.0127171
1.0110951
1.0185124
1.0101940
1.0222609
1.0083511
0.9723290
0.9991806
0.9931034
0.9905959
1.0011290
1.0014728
0.9887615
1.0009040
1.0251686
0.9879040
0.9984607
1.0048707
0.9915341
0.9947019
0.9937639
1.0115430
1.0072565
0.9982400
0.9915617
0.9990375
0.9975094
1.0054841
1.0002217
0.9851187
1.0000857
0.9950441
1.0020962
1.0062083
1.0129024
1.0170933
1.0236721
1.0054398
0.9707314
0.9791472
0.9868805
1.0013610
0.9886419
0.9871315
1.0109641
1.0061143
1.0185355
1.0109714
0.9984103
1.0015246
0.9824764
1.0017438
1.0154789
1.0075838
1.0033755
0.9908493
1.0029462
0.9961445
0.9960438
1.0071137
0.9755518
0.9725179
1.0119157
1.0104736
0.9966300
1.0057230
1.0085208
1.0032439
0.9884591
0.9928525
0.9992474
0.9969004
1.0047415
1.0038475
1.0056020
0.9973543
0.9915314
1.0118843
1.0091514
0.9916552
0.9927485
0.9889579
1.0018550
1.0013923
0.9838300
0.9827758
0.9703675
0.9823323
1.0083753
1.0161610
1.0086548
1.0004650
0.9977226
1.0086405
1.0144252
1.0186086
1.0019233
0.9856093
1.0149725
1.0090419
1.0130877
1.0046177
1.0235832
1.0345692
0.9832561
0.9932729
0.9959214
1.0010710
0.9873703
0.9777092
0.9882844
0.9661503
0.9876564
1.0063205
0.9845370
0.9954165
1.0115364
0.9961516
0.9949599
0.9975110
1.0099934
1.0033402
1.0100370
1.0309094
1.0305973
1.0382467
1.0134840
1.0046789
0.9936188
0.9989860
1.0121404
0.9917086
0.9889279
0.9811568
1.0057401
1.0163622
0.9965117
1.0012214
0.9981532
1.0028628
1.0064829
0.9931962
0.9849010
0.9866652
1.0158889
1.0060704
0.9942848
1.0267020
0.9956798
0.9933830
1.0057334
1.0012377
1.0079297
0.9973714
1.0129814
0.9868507
0.9884374
1.0012425
0.9919576
0.9928025
0.9899590
1.0056236
0.9944972
1.0038960
0.9997166
1.0066068
1.0264840
1.0216291
1.0208743
1.0057943
0.9923065
0.9908279
0.9878958
0.9653926
0.9791542
0.9862216
0.9812921
0.9786471
0.9864674
0.9959721
0.9848960
1.0156405
1.0116408
1.0026609
1.0185409
1.0178701
1.0128136
1.0107009
1.0305199
1.0173749
1.0009575
1.0082620
0.9871009
0.9771663
0.9961610
0.9983886
0.9879867
0.9862994
0.9794553
0.9841962
0.9852068
0.9814156
1.0086223
0.9936260
0.9756172
0.9992465
0.9971036
0.9977658
1.0257450
1.0291414
1.0145517
1.0079228
0.9879205
0.9872775
0.9913796
0.9948739
0.9957623
0.9822573
0.9782271
0.9916146
0.9937843
0.9863066
1.0039643
0.9880209
0.9902235
1.0045711
0.9922585
0.9919636
0.9994403
1.0179395
1.0108745
1.0117319
1.0312292
1.0306007
1.0276067
1.0284601
1.0035025
1.0054749
0.9925116
0.9758797
1.0103050
0.9821656
0.9747081
0.9684338
0.9433302
0.9763833
0.9843375
0.9752029
0.9924697
1.0124618
1.0182647
0.9992424
0.9796665
0.9922785
0.9833063
0.9903423
1.0021519
0.9899577
0.9885331
0.9797639
0.9971640
1.0074100
1.0127123
1.0104557
0.9940332
1.0064501
0.9995717
0.9947025
0.9962796
0.9907357
1.0062883
1.0047776
0.9922819
0.9877252
1.0067980
1.0237141
1.0238646
1.0267917
1.0292612
1.0364229
1.0278271
1.0236755
1.0152577
1.0031946
0.9937182
0.9894147
0.9949946
0.9903049
0.9836067
0.9721460
0.9777794
0.9839793
1.0037150
1.0124353
1.0152798
1.0370978
0.9968905
0.9986736
1.0194382
0.9990229
1.0014276
0.9824446
0.9898879
0.9848292
0.9769048
0.9894025
0.9804341
0.9903600
0.9774326
0.9792615
0.9951726
1.0187104
1.0214757
1.0119798
1.0192439
1.0114935
1.0328313
1.0296722
1.0255102
1.0060650
1.0031779
1.0119377
0.9732392
0.9836510
0.9993245
0.9880120
0.9940939
0.9900428
0.9850685
1.0184213
1.0009644
0.9909546
1.0072509
0.9850953
0.9957668
1.0012573
1.0100236
1.0098540
0.9960992
1.0084439
0.9898490
0.9802124
0.9931307
1.0048126
1.0097735
1.0175024
1.0417112
1.0069128
1.0143646
1.0313616
0.9965000
0.9931558
0.9901404
0.9936768
0.9830652
0.9741644
0.9496629
0.9533322
0.9677891
0.9798387
1.0081781
0.9969012
1.0105915
1.0036205
1.0146746
1.0130385
0.9899132
1.0204915
0.9995724
1.0014437
1.0317490
1.0219248
1.0151424
1.0202147
1.0369441
1.0174614
1.0026017
1.0109608
1.0048780
1.0021765
0.9848343
0.9744036
0.9878813
0.9879021
0.9670980
0.9830948
0.9949429
0.9943941
1.0064281
0.9936710
0.9873253
0.9722562
0.9818190
0.9912911
0.9859214
0.9929129
0.9843743
0.9927530
1.0035061
0.9949449
0.9912050
1.0057939
0.9905516
0.9821598
0.9937463
0.9967198
1.0229925
1.0232049
0.9999936
1.0026914
0.9935481
0.9907019
1.0121498
0.9869093
0.9875983
0.9995601
0.9679972
0.9777003
1.0095431
0.9940091
0.9850051
1.0095317
1.0055061
1.0210555
1.0199742
1.0127075
1.0128317
1.0073792
1.0212029
0.9993173
1.0034725
1.0096739
0.9980216
0.9838833
0.9753928
0.9845028
0.9762838
0.9913934
0.9850070
0.9675311
0.9794196
0.9922340
1.0021381
1.0000532
1.0211006
1.0297313
1.0201824
1.0320612
1.0315670
1.0073566
0.9876350
0.9867334
0.9641651
0.9639637
0.9808878
0.9690420
0.9869504
1.0079556
1.0092810
1.0193105
1.0196056
1.0047672
1.0083830
1.0020850
0.9930783
1.0160610
1.0212095
1.0065497
0.9983037
1.0038320
0.9943073
1.0099245
1.0415572
1.0113199
1.0144982
1.0257431
1.0175097
1.0161457
0.9952147
0.9956984
0.9769496
0.9878469
0.9897685
0.9820555
1.0120380
0.9919689
0.9919446
0.9860918
0.9948152
1.0128542
0.9943636
0.9985870
0.9846323
0.9793865
0.9894950
1.0002794
1.0109466
1.0067264
0.9890412
0.9872651
1.0185174
1.0154705
0.9937598
1.0001760
1.0098683
1.0005688
1.0003376
1.0079485
1.0117165
1.0223725
0.9980216
0.9898841
1.0031879
0.9888211
1.0018466
1.0130038
1.0022722
1.0058581
1.0030359
0.9970507
0.9903568
1.0028296
1.0102114
0.9820041
0.9899995
0.9985440
0.9950375
0.9902081
1.0022621
1.0178277
0.9724059
0.9696573
0.9979701
1.0019530
0.9998760
0.9943312
1.0075899
0.9962803
0.9809149
1.0031212
1.0036450
1.0006089
1.0055536
0.9986646
1.0034797
1.0080151
1.0192990
1.0079998
0.9984289
1.0219237
1.0118690
0.9985439
0.9916379
0.9751394
0.9952128
0.9982081
0.9920264
0.9769540
0.9545737
0.9762782
0.9761754
1.0045870
1.0201441
1.0094641
1.0365943
1.0303096
1.0322853
1.0184511
0.9794457
0.9969887
1.0167062
0.9866169
0.9874967
0.9822025
0.9652147
0.9828376
0.9831098
1.0037287
1.0078419
1.0090531
1.0143074
1.0140928
1.0194645
1.0201487
1.0157150
0.9887538
0.9976152
0.9949966
0.9837821
0.9791588
0.9880424
0.9914191
0.9839292
1.0034087
1.0043365
1.0016065
1.0151710
1.0245260
1.0063992
1.0166475
1.0020834
0.9847325
0.9825205
0.9861931
1.0054563
0.9849305
1.0077774
1.0003451
0.9852827
1.0000886
0.9942198
0.9987224
0.9947866
0.9892599
1.0022835
1.0168971
0.9980839
0.9975818
1.0123422
0.9951584
0.9979555
1.0090724
0.9864612
1.0057054
1.0271507
1.0335213
1.0540454
1.0352614
1.0333973
1.0594560
1.0479951
1.0215662
1.0241777
0.9775584
0.9376372
0.9635278
0.9658970
0.9522591
0.9488307
0.9518830
0.9363007
0.9450383
0.9647382
0.9476472
0.9566475
0.9803922
0.9876711
1.0099411
1.0060641
1.0143898
1.0509221
1.0202506
1.0140928
1.0324796
1.0323022
1.0381511
1.0166387
1.0062623
0.9995823
1.0104085
1.0222772
1.0053915
1.0024560
1.0142767
1.0361727
1.0277289
1.0101516
0.9946297
0.9739244
0.9857586
0.9864865
0.9879619
0.9969555
0.9933758
0.9900329
0.9877396
0.9947074
0.9960664
1.0025823
0.9955755
0.9865678
0.9930019
1.0015640
1.0076632
0.9931813
1.0040602
1.0110733
1.0039131
1.0260953
1.0248693
1.0093811
1.0130469
0.9843973
0.9844021
1.0128825
0.9866155
0.9791919
0.9926013
0.9895759
0.9872532
1.0162533
1.0199466
0.9981327
1.0108900
1.0168840
1.0109540
0.9923944
0.9998260
1.0081640
1.0176948
1.0145043
0.9861673
1.0172142
1.0126900
0.9835929
0.9932992
0.9881413
0.9913162
1.0022914
1.0011304
0.9951893
0.9873948
0.9800648
1.0041706
1.0180026
1.0130008
1.0240243
1.0216476
1.0207886
0.9981273
0.9710847
0.9487773
0.9601351
0.9797660
0.9534870
0.9633589
0.9715421
0.9915826
1.0049608
1.0161101
1.0507281
1.0418339
1.0389440
1.0150931
1.0058438
1.0203964
1.0057323
0.9989923
0.9798624
0.9832091
1.0087345
0.9943847
0.9920683
0.9958218
0.9991995
1.0105891
0.9797602
0.9859810
1.0041632
0.9994193
0.9786089
0.9742380
1.0054530
0.9697078
0.9665361
0.9651386
0.9656748
1.0206732
1.0203048
1.0184224
1.0220978
1.0078680
0.9994277
1.0139903
1.0190687
1.0087779
1.0034806
0.9983568
1.0067381
0.9955087
0.9923144
0.9868340
0.9784776
1.0036971
0.9964887
0.9888587
1.0197224
1.0260896
1.0092724
1.0196659
1.0101790
0.9910785
1.0020198
0.9724916
0.9894353
1.0095667
0.9997736
1.0078422
0.9873757
1.0050450
1.0031106
1.0028276
1.0049692
0.9922535
1.0093339
1.0097806
1.0074453
0.9894418
0.9864866
0.9863828
0.9874937
1.0072770
1.0029701
0.9993459
1.0070897
1.0077103
0.9908244
0.9974601
0.9923448
0.9975581
1.0360120
0.9969192
0.9940697
0.9972667
0.9693888
1.0007863
0.9980026
1.0001609
0.9990303
1.0056036
0.9955318
0.9571299
1.0027274
1.0190141
1.0052813
0.9964528
0.9938546
1.0211776
0.9924857
0.9823506
1.0053923
0.9986934
1.0076198
1.0061762
0.9952261
1.0085002
1.0142994
1.0034577
1.0131950
1.0246198
1.0049641
0.9904646
0.9786877
0.9561442
0.9689277
0.9875077
0.9987613
1.0208911
1.0108526
1.0181104
1.0271254
1.0082185
1.0167978
1.0267434
0.9911143
0.9685650
0.9776045
0.9613943
0.9539752
0.9694745
1.0095757
1.0074847
1.0012187
1.0197109
1.0043057
1.0033479
0.9897738
0.9992852
1.0125329
0.9963428
0.9921665
0.9982031
0.9938819
0.9966011
1.0273776
1.0207831
1.0219296
1.0145128
0.9809774
1.0012850
1.0036165
0.9928704
1.0075833
1.0100456
1.0039524
0.9945241
0.9965294
1.0098200
1.0194092
1.0137769
1.0047905
0.9942647
0.9948461
0.9880595
0.9699424
1.0020835
1.0167099
0.9897778
0.9844748
0.9833570
1.0024410
1.0117982
0.9883931
0.9951570
0.9976228
0.9940636
0.9988538
0.9934332
0.9701751
0.9798941
1.0076729
0.9863912
1.0264579
1.0308424
0.9800984
0.9853707
0.9921843
0.9944166
0.9850793
1.0044432
1.0153317
1.0048572
0.9935016
0.9903814
1.0042069
1.0020120
1.0102028
1.0006167
1.0249036
1.0406632
1.0001778
1.0012665
1.0004520
0.9968971
0.9974028
0.9823594
0.9691625
0.9994820
1.0413678
1.0138714
0.9940287
0.9949484
0.9924316
0.9974607
0.9868031
0.9536658
0.9504680
0.9621674
0.9383642
0.9518461
0.9622862
0.9667191
0.9983072
0.9964428
0.9985757
1.0427481
1.0378653
1.0054664
1.0300209
1.0254873
1.0191011
1.0319384
1.0463145
1.0411286
1.0061263
1.0236588
1.0260957
0.9994201
0.9812331
0.9889703
1.0154892
0.9925614
0.9961251
1.0066619
0.9909596
1.0077714
0.9990645
0.9887481
0.9880754
0.9954116
1.0038310
0.9947520
0.9708888
0.9722540
1.0094579
0.9958891
1.0131857
1.0108797
0.9943778
0.9987648
0.9924310
1.0140994
1.0089479
1.0067544
0.9931348
0.9973960
0.9945210
0.9908296
1.0092107
0.9942334
0.9954365
1.0068544
1.0159287
1.0183822
1.0153936
1.0160364
1.0007098
0.9839168
1.0094193
1.0161122
0.9992003
0.9943063
0.9995937
0.9999960
0.9828946
0.9950752
0.9887273
0.9939335
1.0151444
0.9977252
0.9993228
1.0070004
0.9793761
0.9778119
1.0010987
0.9868957
0.9926328
1.0169568
1.0051664
1.0041012
1.0168447
1.0050019
1.0073163
1.0223780
1.0166165
1.0171675
1.0132504
1.0130602
1.0198610
0.9999240
1.0363429
1.0646507
1.0328874
1.0412506
1.0454212
1.0478391
1.0576686
1.0357114
0.9921612
0.9618583
0.9178844
0.8921320
0.9176510
0.9266232
0.9423327
0.9564308
0.9940842
1.0402258
1.0129373
0.9713292
0.9551868
0.9604379
0.9852901
0.9886223
0.9986247
1.0053864
1.0126100
1.0361121
1.0217635
1.0376327
1.0362250
1.0095259
1.0208745
1.0332340
1.0423959
1.0277806
1.0163863
1.0127775
0.9992135
0.9716921
0.9616805
0.9642633
0.9600228
0.9650581
0.9860249
1.0070395
1.0037069
1.0419499
1.0544436
1.0244191
1.0431897
1.0483284
1.0150378
0.9978982
0.9721530
0.9521228
0.9925094
0.9881358
0.9602828
0.9659951
0.9791146
0.9822995
0.9707781
0.9688579
0.9656125
1.0104424
1.0140991
0.9862129
1.0073990
0.9949542
0.9865614
1.0159163
1.0238119
1.0115592
1.0145302
1.0237094
1.0287932
1.0107411
0.9911871
1.0021146
1.0259252
1.0091459
0.9984384
1.0289988
1.0168954
1.0138927
1.0276501
1.0228204
1.0055475
0.9945180
1.0024682
0.9681167
0.9568627
0.9591033
0.9611874
1.0052795
0.9923777
0.9915514
1.0492946
1.0682178
1.0503062
1.0394834
1.0333936
1.0142476
0.9807786
0.9419043
0.9257552
0.9137685
0.9281577
0.9653856
0.9726272
0.9844410
0.9979309
1.0041066
1.0131116
1.0236284
1.0375144
1.0274652
1.0120188
1.0234697
1.0371108
1.0390475
1.0467609
1.0631445
1.0747075
1.0530197
1.0146962
1.0032657
1.0089374
0.9937365
0.9497131
0.9480811
0.9738858
0.9537560
0.9564439
0.9653167
0.9581286
0.9860341
0.9849319
0.9817438
0.9885577
0.9930657
1.0001450
0.9837944
0.9831821
1.0000799
1.0138039
0.9960075
0.9848203
1.0106927
1.0152405
0.9950405
1.0195646
1.0351561
1.0221625
1.0226671
1.0091555
1.0044217
1.0039480
1.0090754
0.9936164
0.9972674
1.0030544
1.0027032
0.9985752
0.9670384
0.9997179
0.9948509
0.9930250
1.0121969
0.9884153
0.9903728
0.9851555
1.0118609
1.0055074
0.9835210
1.0052772
0.9957937
0.9983765
1.0055748
1.0122693
0.9987979
1.0111092
1.0337936
0.9937851
1.0146884
1.0079623
0.9906294
1.0199874
1.0073473
1.0175059
0.9930878
0.9839297
0.9915393
0.9674898
0.9957809
1.0223777
1.0363106
1.0231812
0.9794186
0.9689045
0.9825032
0.9769150
0.9712763
0.9937291
1.0062401
1.0083509
1.0133665
0.9959154
1.0145259
1.0342545
1.0092493
1.0430548
1.0653705
1.0340306
1.0116564
1.0080162
1.0005391
0.9569105
0.9344642
0.9292521
0.9113445
0.9178694
0.9160019
0.9300444
0.9822279
1.0065474
1.0496919
1.0962873
1.1140950
1.1050533
1.0757039
1.0779910
1.0637541
1.0203203
0.9610020
0.9272301
0.9552947
0.9584453
0.9349558
0.9613392
0.9690378
0.9581183
0.9781924
0.9647928
0.9812682
1.0289835
1.0594915
1.0808106
1.0878196
1.0939359
1.1017275
1.1116063
1.0743540
1.0071763
0.9335562
0.8747819
0.8548002
0.8877743
0.9486365
0.9713179
0.9772316
0.9657060
0.9762188
0.9918724
0.9838726
0.9994571
0.9877068
0.9638225
0.9712794
0.9728483
0.9807126
0.9924036
1.0002786
1.0285605
1.0210733
1.0060336
1.0287426
1.0618227
1.0937564
1.0854965
1.1029578
1.0988735
1.0531444
1.0595645
1.0271231
1.0028896
1.0242341
1.0218519
1.0044580
0.9664777
0.9358096
0.9242017
0.9273806
0.9543405
0.9638596
0.9344225
0.9466665
0.9790993
0.9794583
0.9790655
0.9838017
0.9795051
0.9772429
0.9789981
0.9768537
1.0138826
1.0292718
1.0239902
1.0519534
1.0857323
1.0862043
1.0715563
1.0397495
1.0104094
0.9870909
0.9555572
0.9877545
0.9243836
0.8839553
0.9576652
0.9909816
1.0361474
1.0271437
1.0075048
1.0382024
1.0620981
1.0568443
1.0282515
1.0670114
1.0864967
1.0318738
1.0106650
0.9793063
0.9571943
0.9717473
1.0225225
1.0231952
1.0383381
1.0978829
1.0206662
0.9786067
0.9855041
0.9877644
1.0146089
1.0099807
0.9990497
0.9563718
0.9199834
0.9296385
0.9217125
0.9117269
0.8693950
0.8279929
0.8391701
0.8693292
0.9782587
1.0291308
0.9857228
0.9457294
0.9807058
1.0309223
1.0429095
1.0728203
1.1265099
1.1809533
1.2119619
1.2554893
1.2181685
1.1929067
1.1682188
1.1731125
1.1829506
1.1329846
1.0200239
0.8375529
0.7865562
0.7313002
0.7644780
0.7777441
0.8132630
0.9470751
0.9524127
1.0036816
0.9666530
0.9500189
0.9814867
0.9664586
1.0120620
1.0464683
1.0444541
1.0003351
0.9918599
0.9845768
1.0321359
1.0579108
1.0060425
1.0269719
1.0407446
1.0742324
1.0872024
1.0376475
0.9906839
0.9306142
0.8914159
0.8961072
0.9253803
0.9242511
0.9304589
1.0009252
1.0414842
1.0506126
1.0591034
1.0066230
0.9862992
0.9899871
1.0067789
1.0381612
1.0823462
1.1248452
1.0527855
1.0548404
1.0499197
0.9961943
1.0271889
0.9914410
0.9608615
0.9542325
0.9305533
0.9202353
0.9389878
1.0315491
1.0734696
1.0295860
1.0412014
1.0908141
1.0478877
1.0173047
1.0165697
0.9428416
0.9405102
0.9771490
0.9534781
0.9330872
0.9114988
0.8786055
0.9551561
1.0480575
1.0533475
1.0839619
1.0495022
1.0092586
1.0085726
0.9706863
0.9847235
1.0375668
1.0337973
1.0212365
1.0227728
1.0240950
1.0551677
1.0421598
1.0990838
1.1428926
1.1020204
1.0231400
0.8330586
0.7893994
0.8518442
0.8810184
0.9076045
0.9370297
1.0126029
1.0640575
1.0695056
1.1175736
1.0924939
0.9926550
1.0324408
1.0369205
1.0262477
1.0281365
1.0059171
1.0449214
1.0583149
1.0450350
0.9835098
0.9114492
0.8194268
0.8151825
0.8787893
0.8506348
0.8724081
0.9051690
0.9450443
1.0445375
1.1082720
1.1692995
1.1538455
1.0661932
1.1112081
1.1964200
1.1635858
1.1503266
1.1380627
1.0343770
0.9415634
0.8387715
0.8104974
0.8713868
0.9721624
1.0581761
1.0226607
1.0608240
1.0621006
0.9401418
0.8584225
0.8476207
0.9173575
0.9980962
1.0654689
1.0555564
1.0585015
0.9677493
0.8352868
0.8591069
0.8195493
0.7971740
0.7966162
0.9052939
1.0953247
1.1655342
1.1841396
1.1760880
1.2575626
1.2854187
1.2771196
1.2779526
1.1687192
0.9890538
0.7983047
0.7849444
0.8642178
0.9184756
0.8898782
0.7750687
0.7552810
0.7821061
0.7749652
0.8628807
1.0264576
1.1222472
1.1945282
1.3151638
1.4124884
1.3249034
1.3290949
1.3006673
1.1008749
0.9942493
0.8308458
0.8749787
0.8313215
0.5857801
0.6145911
0.7271605
0.7075776
0.6372565
0.6723794
0.7562382
0.9107821
1.0072429
1.0847806
1.2241346
1.2637288
1.3568733
1.3779749
1.2526614
1.2833083
1.1760897
0.9484737
0.9129493
0.8966172
0.9240620
0.9725673
1.0565011
1.1189666
1.2151199
1.2664552
1.0611931
0.8930934
0.8830867
0.8273063
0.7499520
0.8576417
0.9772822
0.9976433
0.9726049
0.9583408
0.9502404
1.0734904
1.1826398
1.0416603
0.9187298
0.7981285
0.7200974
0.5718380
0.6913155
0.9990410
0.9540107
1.1727610
1.3151941
1.1855161
1.2508782
1.1956117
1.1050656
1.0359483
0.8557345
0.8135603
0.8802408
0.9370028
1.1326705
1.1604806
1.1275323
1.1710116
0.9388475
0.7085374
0.7330302
0.9187475
0.9708708
1.0006893
1.1268246
1.2449008
1.3500108
1.3250276
1.3763414
1.4420792
1.1733527
0.8233630
0.6967190
0.7557978
0.7419460
0.5067377
0.4114887
0.5619323
0.8511077
1.0823127
1.3110848
1.5012772
1.4982469
1.4558919
1.1988763
0.6161309
0.0485718
-0.0271333
0.2070807
0.4997846
0.9322514
1.1444357
1.1565423
1.4184767
1.5691420
1.5423337
1.4453180
1.3971675
1.5420937
1.4107902
1.1192260
0.8710771
0.9576853
1.3319521
1.4777420
1.4305113
1.2756026
0.9243011
0.6704366
0.7491885
0.7002553
0.7342402
0.8249015
0.4422887
0.3262774
0.5752607
0.7144406
0.8514217
0.9328962
1.1270247
1.0334163
0.9364431
1.0890435
0.8909675
0.8047389
0.7429743
0.6524813
0.4716589
0.3369936
0.9677442
1.5984187
2.0077718
2.3889118
2.1866572
1.9438081
1.6463656
0.7783243
0.0949826
0.0843512
0.4899655
0.8269646
1.2263999
1.6013025
1.7627700
1.5712711
1.0165483
0.6819464
0.1920958
-0.0017124
0.1006016
0.3967497
0.8095179
0.8376887
1.1560464
1.2027133
1.0853749
1.1282978
1.2220317
1.2548718
1.1148821
1.3940173
1.7266441
1.8522966
1.6045323
1.2330071
1.4546301
1.3584005
1.1246993
0.5279226
-0.6343276
-0.4002427
-0.3004073
-0.4993635
-0.0987608
0.6138589
1.7580195
2.2113346
2.3117479
2.2758923
2.3244803
2.0754905
1.3912125
0.9263411
0.7627104
0.8701149
1.0234437
0.7850808
0.4790921
0.4865246
0.0703245
0.1189264
0.5365566
0.8871784
1.1825089
1.0658813
0.8636794
0.7054792
1.2396735
1.4030273
0.4519855
0.3825739
1.1484787
1.1454319
0.8319722
0.8631263
1.2285156
1.7048441
2.0926896
2.1053884
1.8884122
2.1260935
1.9892740
1.3140031
1.1885472
0.9286965
0.6349678
0.3270171
-1.0829392
-1.7301037
-1.1909249
-0.3060186
0.8037604
1.4146459
2.3485904
2.9002176
2.0757547
1.2721219
1.1492784
1.0758736
0.8642557
1.1142165
1.3929655
1.1729558
1.4317505
1.4785008
0.9911496
1.0695864
1.1872629
1.5442164
1.5124530
0.0683758
-1.1141370
-0.9902130
-0.1780141
0.3810607
0.9918809
2.2226546
2.3304441
1.4066480
0.9635018
1.4741617
1.9365616
1.1646997
1.1660746
1.5573775
1.4342651
1.4394093
1.4510802
1.6304913
1.6341426
1.4151973
-0.0880233
-1.6444807
-1.8533764
-1.1329672
-0.1327107
0.3966749
1.7380801
2.6599100
2.4006785
2.3145498
2.3843513
2.4665677
2.2657022
1.4772431
0.8960657
0.7646673
0.3322837
0.1758472
0.5036639
1.3197494
1.4773108
0.3182685
-0.2040945
0.0059358
-0.0019972
0.2484390
0.4950387
0.8620108
1.5103511
1.1112037
0.8712943
1.5978370
1.7412300
1.7062523
2.0105880
2.0770241
1.9254149
1.5333990
1.3957417
1.3535133
1.1796591
0.8269386
-0.1462126
-1.0385902
-1.2486763
-0.5011307
0.2476350
0.8846095
2.4881475
3.3099980
1.8033838
0.8399940
1.0573309
1.1686495
1.8012487
1.6999492
1.3041258
