4.44183	
4.43878	
4.4281	
4.42047	
4.41589	
4.42047	
4.42047	
4.41895	
4.41742	
4.41589	
4.41742	
4.41742	
4.422	
4.42352	
4.4281	
4.42505	
4.422	
4.42963	
4.42505	
4.42505	
4.41895	
4.41284	
4.41132	
4.41589	
4.41284	
4.41284	
4.41132	
4.41284	
4.41132	
4.41132	
4.41437	
4.40521	
4.40826	
4.41132	
4.42047	
4.42963	
4.43268	
4.42963	
4.4281	
4.41895	
4.42047	
4.42352	
4.42352	
4.43726	
4.44794	
4.44641	
4.44183	
4.44336	
4.4342	
4.4281	
4.41742	
4.41132	
4.40826	
4.39301	
4.39453	
4.39911	
4.39453	
4.40369	
4.40826	
4.41437	
4.41895	
4.41589	
4.40979	
4.40369	
4.40674	
4.40369	
4.40826	
4.41284	
4.41742	
4.42505	
4.42352	
4.41742	
4.40369	
4.41589	
4.42352	
4.42505	
4.44336	
4.44031	
4.43573	
4.4342	
4.44031	
4.43115	
4.41742	
4.39453	
4.38385	
4.38538	
4.38843	
4.39758	
4.40521	
4.41589	
4.42352	
4.42505	
4.42505	
4.41895	
4.41284	
4.40674	
4.41437	
4.43573	
4.43878	
4.44489	
4.44336	
4.43878	
4.43268	
4.43268	
4.42963	
4.43268	
4.4342	
4.43573	
4.42505	
4.41895	
4.42047	
4.41589	
4.41589	
4.41742	
4.41742	
4.41742	
4.41437	
4.41589	
4.41284	
4.41589	
4.41742	
4.41437	
4.41284	
4.42505	
4.44794	
4.44794	
4.44336	
4.43726	
4.42963	
4.42352	
4.41284	
4.41437	
4.40369	
4.39453	
4.3869	
4.38232	
4.40216	
4.41284	
4.43268	
4.42047	
4.422	
4.41132	
4.40216	
4.40674	
4.40521	
4.41132	
4.41132	
4.41132	
4.41895	
4.4281	
4.422	
4.42352	
4.42047	
4.43115	
4.44489	
4.44641	
4.43726	
4.4281	
4.42047	
4.41437	
4.40979	
4.40521	
4.40826	
4.40826	
4.40979	
4.40979	
4.41132	
4.41284	
4.40063	
4.39453	
4.39911	
4.41284	
4.40521	
4.40674	
4.40369	
4.40521	
4.40063	
4.40369	
4.41437	
4.41895	
4.43115	
4.43268	
4.4342	
4.4342	
4.42505	
4.42047	
4.4281	
4.42963	
4.43115	
4.42505	
4.41895	
4.422	
4.41895	
4.41742	
4.41742	
4.41284	
4.41284	
4.41589	
4.41132	
4.41284	
4.41437	
4.42047	
4.42047	
4.41437	
4.41742	
4.41132	
4.40826	
4.40674	
4.41589	
4.41742	
4.422	
4.42505	
4.42505	
4.42047	
4.42505	
4.41895	
4.42047	
4.4281	
4.42352	
4.41895	
4.41895	
4.41284	
4.41132	
4.41437	
4.41895	
4.41742	
4.41437	
4.41589	
4.41589	
4.43268	
4.44489	
4.44489	
4.44336	
4.44031	
4.4281	
4.41895	
4.40674	
4.40063	
4.3869	
4.37164	
4.37012	
4.37469	
4.38232	
4.39301	
4.40826	
4.42505	
4.43115	
4.41895	
4.41742	
4.43268	
4.43268	
4.42505	
4.41284	
4.40826	
4.39911	
4.39758	
4.39301	
4.37927	
4.37469	
4.37622	
4.38538	
4.39758	
4.40674	
4.41132	
4.41742	
4.422	
4.43115	
4.43115	
4.43115	
4.42963	
4.42505	
4.42963	
4.4281	
4.43268	
4.43726	
4.4342	
4.4281	
4.4281	
4.4281	
4.42505	
4.41742	
4.41895	
4.42047	
4.422	
4.41589	
4.41895	
4.41742	
4.41742	
4.41742	
4.41437	
4.41589	
4.41284	
4.41132	
4.41284	
4.41132	
4.41284	
4.41589	
4.422	
4.42505	
4.42047	
4.4281	
4.422	
4.42047	
4.41895	
4.41895	
4.41589	
4.41437	
4.41589	
4.41132	
4.41437	
4.42963	
4.44031	
4.43268	
4.42963	
4.42963	
4.41895	
4.40826	
4.40826	
4.39301	
4.37622	
4.36707	
4.35638	
4.35486	
4.36401	
4.37622	
4.38843	
4.40979	
4.42047	
4.41742	
4.42505	
4.42963	
4.42505	
4.42963	
4.4281	
4.4281	
4.42047	
4.41132	
4.40369	
4.40521	
4.40216	
4.39758	
4.38538	
4.3869	
4.39453	
4.40063	
4.40521	
4.41437	
4.42047	
4.422	
4.41742	
4.41589	
4.40674	
4.39758	
4.38995	
4.39453	
4.39911	
4.40216	
4.40826	
4.41437	
4.41589	
4.41132	
4.40674	
4.40826	
4.40979	
4.41284	
4.41589	
4.41284	
4.41284	
4.422	
4.41589	
4.41132	
4.41132	
4.40369	
4.422	
4.4342	
4.4281	
4.41895	
4.41132	
4.40521	
4.39911	
4.39911	
4.38995	
4.37927	
4.37317	
4.3808	
4.38995	
4.39453	
4.3869	
4.3869	
4.38995	
4.39911	
4.39301	
4.38995	
4.38995	
4.39911	
4.40063	
4.39758	
4.40521	
4.40521	
4.39911	
4.40063	
4.40826	
4.41437	
4.40826	
4.40521	
4.40674	
4.40826	
4.40826	
4.40674	
4.40826	
4.40063	
4.40216	
4.40369	
4.39911	
4.40063	
4.39758	
4.37622	
4.37012	
4.36859	
4.36096	
4.36096	
4.36859	
4.37927	
4.39453	
4.40216	
4.40826	
4.40979	
4.40826	
4.40216	
4.41437	
4.4281	
4.42047	
4.41132	
4.40826	
4.40826	
4.40369	
4.39148	
4.3869	
4.38995	
4.38385	
4.3869	
4.39453	
4.39148	
4.38995	
4.39911	
4.40521	
4.40979	
4.40979	
4.41132	
4.41284	
4.41132	
4.42352	
4.43268	
4.43115	
4.42352	
4.40979	
4.40216	
4.39453	
4.38995	
4.3869	
4.37622	
4.3808	
4.38385	
4.38385	
4.39301	
4.38843	
4.38385	
4.38995	
4.39148	
4.39301	
4.39148	
4.38995	
4.39301	
4.39911	
4.39148	
4.38385	
4.37927	
4.38995	
4.39453	
4.38843	
4.38843	
4.3869	
4.38385	
4.3869	
4.39301	
4.39911	
4.40063	
4.39911	
4.38538	
4.37775	
4.37012	
4.36707	
4.37622	
4.39301	
4.40369	
4.40979	
4.40826	
4.41132	
4.40521	
4.40063	
4.39301	
4.40521	
4.40979	
4.40674	
4.39911	
4.38995	
4.39758	
4.39911	
4.39301	
4.38538	
4.38232	
4.39148	
4.40674	
4.41437	
4.41589	
4.40826	
4.41132	
4.40979	
4.39911	
4.39758	
4.39148	
4.37622	
4.37164	
4.37469	
4.37775	
4.3869	
4.39301	
4.39758	
4.40369	
4.39911	
4.39453	
4.39453	
4.39911	
4.40063	
4.39453	
4.38995	
4.3869	
4.38843	
4.37927	
4.3808	
4.3869	
4.38385	
4.37622	
4.37317	
4.37317	
4.38232	
4.37622	
4.38232	
4.38538	
4.38538	
4.3869	
4.39758	
4.40216	
4.40674	
4.41437	
4.40826	
4.40674	
4.40521	
4.40063	
4.39758	
4.38843	
4.39453	
4.39148	
4.39911	
4.40063	
4.39911	
4.3808	
4.37775	
4.37469	
4.36249	
4.36096	
4.36401	
4.37317	
4.38232	
4.38843	
4.38538	
4.38385	
4.38538	
4.38538	
4.39301	
4.40521	
4.39911	
4.40063	
4.40216	
4.40063	
4.40369	
4.39453	
4.39453	
4.41589	
4.4281	
4.42963	
4.422	
4.41284	
4.39758	
4.38995	
4.39148	
4.39301	
4.38538	
4.36859	
4.36096	
4.36096	
4.36707	
4.37469	
4.37927	
4.3808	
4.38995	
4.38385	
4.38232	
4.38538	
4.37927	
4.37622	
4.38385	
4.38843	
4.38995	
4.39301	
4.38385	
4.38232	
4.3869	
4.38385	
4.3869	
4.3869	
4.39148	
4.3869	
4.38843	
4.39301	
4.39148	
4.39148	
4.38995	
4.38843	
4.3869	
4.38843	
4.3808	
4.37317	
4.37012	
4.37012	
4.37927	
4.37469	
4.36401	
4.36096	
4.37012	
4.37012	
4.37164	
4.37164	
4.37469	
4.38385	
4.40521	
4.40521	
4.39453	
4.39148	
4.38385	
4.38843	
4.39911	
4.39148	
4.38843	
4.37622	
4.37012	
4.37317	
4.37469	
4.37775	
4.37469	
4.3808	
4.38843	
4.39148	
4.40216	
4.41742	
4.41742	
4.41284	
4.40826	
4.39911	
4.38995	
4.38385	
4.37317	
4.36249	
4.35638	
4.35486	
4.34875	
4.34875	
4.35944	
4.36859	
4.38843	
4.40369	
4.39911	
4.38843	
4.3808	
4.3869	
4.3808	
4.37622	
4.37164	
4.37164	
4.37012	
4.37164	
4.37469	
4.37775	
4.3808	
4.37775	
4.37927	
4.3808	
4.3808	
4.37775	
4.37469	
4.36859	
4.36707	
4.36249	
4.36859	
4.36859	
4.37012	
4.37469	
4.37775	
4.36401	
4.35944	
4.35181	
4.35486	
4.35486	
4.36859	
4.38995	
4.4281	
4.43268	
4.43268	
4.41437	
4.40063	
4.3808	
4.38232	
4.38538	
4.37775	
4.36249	
4.34875	
4.34418	
4.3457	
4.35638	
4.35944	
4.36707	
4.3869	
4.38385	
4.38385	
4.3869	
4.3869	
4.38385	
4.38232	
4.38232	
4.3808	
4.3869	
4.3808	
4.37927	
4.37927	
4.38232	
4.37469	
4.37012	
4.37012	
4.36859	
4.36859	
4.37012	
4.37469	
4.37927	
4.38232	
4.37927	
4.37622	
4.37469	
4.37317	
4.37469	
4.37622	
4.36859	
4.36401	
4.35638	
4.35944	
4.36096	
4.35791	
4.36859	
4.37775	
4.37469	
4.37622	
4.37164	
4.37012	
4.36401	
4.36249	
4.35791	
4.35638	
4.36707	
4.37164	
4.37469	
4.37317	
4.37164	
4.37317	
4.36707	
4.35638	
4.35181	
4.37469	
4.37164	
4.37317	
4.37622	
4.37469	
4.38538	
4.38843	
4.38385	
4.37775	
4.37317	
4.37012	
4.37164	
4.37469	
4.37317	
4.37317	
4.36859	
4.38843	
4.40063	
4.40674	
4.39758	
4.38843	
4.3808	
4.37317	
4.36249	
4.35638	
4.34113	
4.34723	
4.3457	
4.34418	
4.35333	
4.36249	
4.37317	
4.37927	
4.38843	
4.37775	
4.36859	
4.35944	
4.35333	
4.35028	
4.34723	
4.3457	
4.34723	
4.35486	
4.36249	
4.36707	
4.36249	
4.35638	
4.35486	
4.36249	
4.37622	
4.38232	
4.3808	
4.3808	
4.37927	
4.36859	
4.37164	
4.37622	
4.37927	
4.38538	
4.38232	
4.3808	
4.37164	
4.36707	
4.35944	
4.35638	
4.35638	
4.36096	
4.36859	
4.37012	
4.37775	
4.37164	
4.36859	
4.36401	
4.36096	
4.36096	
4.35791	
4.35486	
4.35486	
4.35486	
4.35028	
4.35028	
4.34265	
4.3396	
4.33197	
4.32129	
4.32129	
4.32739	
4.3396	
4.35791	
4.36401	
4.37164	
4.39148	
4.41132	
4.40826	
4.40369	
4.39301	
4.38232	
4.38232	
4.37317	
4.35944	
4.34875	
4.33655	
4.33044	
4.33044	
4.33197	
4.34113	
4.35028	
4.35333	
4.35333	
4.35181	
4.35638	
4.35944	
4.36401	
4.36096	
4.36249	
4.36707	
4.36859	
4.36707	
4.36859	
4.35791	
4.35791	
4.35486	
4.35944	
4.36249	
4.36707	
4.36249	
4.36249	
4.35486	
4.35333	
4.35028	
4.34418	
4.34265	
4.34875	
4.35638	
4.36249	
4.35333	
4.35486	
4.35028	
4.35486	
4.34875	
4.34723	
4.3457	
4.35028	
4.36249	
4.36859	
4.36859	
4.36707	
4.36249	
4.35638	
4.36249	
4.35944	
4.35638	
4.35181	
4.35638	
4.36249	
4.36096	
4.34723	
4.3457	
4.31671	
4.31213	
4.31366	
4.31671	
4.32129	
4.33655	
4.34723	
4.36401	
4.37317	
4.37622	
4.37164	
4.38385	
4.37927	
4.38232	
4.38538	
4.37317	
4.36249	
4.36249	
4.36096	
4.35333	
4.3396	
4.32587	
4.32281	
4.32281	
4.32739	
4.35181	
4.36249	
4.37775	
4.36859	
4.35638	
4.35638	
4.35181	
4.34418	
4.34113	
4.33655	
4.33655	
4.33502	
4.34418	
4.34723	
4.35333	
4.36096	
4.36859	
4.37775	
4.37469	
4.37164	
4.36401	
4.35638	
4.35333	
4.35028	
4.35791	
4.36096	
4.35181	
4.35181	
4.35944	
4.35791	
4.35638	
4.35181	
4.35181	
4.34113	
4.32281	
4.31519	
4.30756	
4.3045	
4.32129	
4.33044	
4.34875	
4.36707	
4.39301	
4.40216	
4.40521	
4.39911	
4.40369	
4.40826	
4.40063	
4.39148	
4.36707	
4.34418	
4.33197	
4.34113	
4.34265	
4.34265	
4.35333	
4.35028	
4.35638	
4.35944	
4.35486	
4.35181	
4.35791	
4.35944	
4.36096	
4.35944	
4.36401	
4.36096	
4.35638	
4.35181	
4.35028	
4.34723	
4.3457	
4.34723	
4.3457	
4.34875	
4.35333	
4.35028	
4.35028	
4.34875	
4.3457	
4.34875	
4.3457	
4.35028	
4.3457	
4.34418	
4.35181	
4.35944	
4.36249	
4.36401	
4.36249	
4.36096	
4.36096	
4.35944	
4.36249	
4.35791	
4.35791	
4.36096	
4.36401	
4.36401	
4.36859	
4.36859	
4.36401	
4.35944	
4.35791	
4.36096	
4.36401	
4.36249	
4.36249	
4.36096	
4.35944	
4.36096	
4.35944	
4.35638	
4.35638	
4.35638	
4.35638	
4.34723	
4.33044	
4.32739	
4.33197	
4.33502	
4.3396	
4.35181	
4.37622	
4.40979	
4.41284	
4.39911	
4.38232	
4.37164	
4.36707	
4.36707	
4.36401	
4.35944	
4.35028	
4.34265	
4.34723	
4.34723	
4.35333	
4.35944	
4.37317	
4.38385	
4.37469	
4.37164	
4.37012	
4.37012	
4.36707	
4.36249	
4.36401	
4.36859	
4.36707	
4.36707	
4.36096	
4.35638	
4.35791	
4.36249	
4.36401	
4.36249	
4.36707	
4.37164	
4.37164	
4.37622	
4.36859	
4.36249	
4.37012	
4.37012	
4.36859	
4.37317	
4.36859	
4.37012	
4.37164	
4.36707	
4.37012	
4.37012	
4.37164	
4.37927	
4.3808	
4.35791	
4.35181	
4.35486	
4.35333	
4.35791	
4.36401	
4.36401	
4.37317	
4.37012	
4.36707	
4.35486	
4.34723	
4.3457	
4.3808	
4.40826	
4.40521	
4.40369	
4.40216	
4.38843	
4.37622	
4.36859	
4.36249	
4.35486	
4.34875	
4.34418	
4.34418	
4.34875	
4.34875	
4.35944	
4.37469	
4.37012	
4.36859	
4.36859	
4.36249	
4.36249	
4.36096	
4.36249	
4.36249	
4.36401	
4.36859	
4.37012	
4.36859	
4.36401	
4.36249	
4.36249	
4.36249	
4.36249	
4.36096	
4.35486	
4.35181	
4.34418	
4.34418	
4.3457	
4.3457	
4.35028	
4.35638	
4.35181	
4.34875	
4.34723	
4.35181	
4.35791	
4.35486	
4.35638	
4.35944	
4.35638	
4.36859	
4.36707	
4.35638	
4.36096	
4.36707	
4.36401	
4.35333	
4.34723	
4.3457	
4.34265	
4.34113	
4.35028	
4.35944	
4.37775	
4.38232	
4.38843	
4.37927	
4.37317	
4.37164	
4.37164	
4.37927	
4.37317	
4.37317	
4.37164	
4.37164	
4.37164	
4.36859	
4.36401	
4.36859	
4.35486	
4.36401	
4.37317	
4.37775	
4.37622	
4.37164	
4.37012	
4.35944	
4.36249	
4.35486	
4.34113	
4.32587	
4.32281	
4.32739	
4.34113	
4.34418	
4.34265	
4.35944	
4.35944	
4.35638	
4.35944	
4.35944	
4.35486	
4.35486	
4.35638	
4.36401	
4.35944	
4.35486	
4.36249	
4.35944	
4.34875	
4.34723	
4.34875	
4.35638	
4.36707	
4.36249	
4.35791	
4.35791	
4.36096	
4.35791	
4.35486	
4.36249	
4.37164	
4.37317	
4.35944	
4.35333	
4.35028	
4.33655	
4.32129	
4.32587	
4.33807	
4.34418	
4.35486	
4.35791	
4.35486	
4.35181	
4.34875	
4.36249	
4.37012	
4.37012	
4.35944	
4.34418	
4.3457	
4.3457	
4.3457	
4.35181	
4.35333	
4.37012	
4.38995	
4.39453	
4.38995	
4.3808	
4.37012	
4.36859	
4.37622	
4.37164	
4.35333	
4.3396	
4.3396	
4.33807	
4.3396	
4.34418	
4.34418	
4.35944	
4.36707	
4.36249	
4.36096	
4.36096	
4.36401	
4.36096	
4.36401	
4.35791	
4.35486	
4.35181	
4.34875	
4.3457	
4.3457	
4.3457	
4.34723	
4.35181	
4.35028	
4.34723	
4.35028	
4.34875	
4.34723	
4.32739	
4.3396	
4.34113	
4.3457	
4.34418	
4.3457	
4.35791	
4.36859	
4.37164	
4.36096	
4.35028	
4.33807	
4.32892	
4.34265	
4.35791	
4.35333	
4.35638	
4.3457	
4.34723	
4.35486	
4.36707	
4.37012	
4.37317	
4.37164	
4.37469	
4.37622	
4.39148	
4.41132	
4.40979	
4.40063	
4.38538	
4.37927	
4.37469	
4.36859	
4.35638	
4.34265	
4.32739	
4.32129	
4.31519	
4.31976	
4.31976	
4.32587	
4.33655	
4.34875	
4.3396	
4.33044	
4.3396	
4.3396	
4.34875	
4.34723	
4.35486	
4.35944	
4.35944	
4.36249	
4.35791	
4.35028	
4.35791	
4.35181	
4.36249	
4.37164	
4.36249	
4.35638	
4.35181	
4.35028	
4.35028	
4.34418	
4.34418	
4.34113	
4.35638	
4.37164	
4.37317	
4.35638	
4.35333	
4.35638	
4.35333	
4.35181	
4.35181	
4.35028	
4.35028	
4.35181	
4.34875	
4.34723	
4.34875	
4.34875	
4.3457	
4.34265	
4.34418	
4.33807	
4.3396	
4.33807	
4.35028	
4.35486	
4.34113	
4.33044	
4.32434	
4.32129	
4.32892	
4.33807	
4.34418	
4.35791	
4.36859	
4.37622	
4.36707	
4.35791	
4.3457	
4.34113	
4.3457	
4.33655	
4.31976	
4.31061	
4.31061	
4.31976	
4.34113	
4.35181	
4.35791	
4.37164	
4.37317	
4.36859	
4.37012	
4.36249	
4.35791	
4.35944	
4.35638	
4.35638	
4.35638	
4.35791	
4.35333	
4.35638	
4.35486	
4.35181	
4.35181	
4.34723	
4.34723	
4.35028	
4.34723	
4.3457	
4.35181	
4.35028	
4.35028	
4.34418	
4.35181	
4.34723	
4.34113	
4.33502	
4.33197	
4.33655	
4.33502	
4.33655	
4.33807	
4.33655	
4.34265	
4.34265	
4.34113	
4.33502	
4.32739	
4.32587	
4.34113	
4.34265	
4.3457	
4.34418	
4.3396	
4.34875	
4.35333	
4.36249	
4.36096	
4.35486	
4.35333	
4.35791	
4.35181	
4.34723	
4.34723	
4.34418	
4.34418	
4.34113	
4.33807	
4.33807	
4.33655	
4.33197	
4.31976	
4.31366	
4.31213	
4.31519	
4.31519	
4.33502	
4.3396	
4.34265	
4.35028	
4.35181	
4.35486	
4.35638	
4.35181	
4.3396	
4.32434	
4.31824	
4.31519	
4.32587	
4.34875	
4.35486	
4.35028	
4.35791	
4.35638	
4.35486	
4.35181	
4.35333	
4.3457	
4.34723	
4.34113	
4.34265	
4.3457	
4.3396	
4.33655	
4.33807	
4.33807	
4.33655	
4.33655	
4.33502	
4.33502	
4.33655	
4.32892	
4.33502	
4.33502	
4.34265	
4.34265	
4.34723	
4.3457	
4.34113	
4.34113	
4.33502	
4.33044	
4.3396	
4.33807	
4.34113	
4.34113	
4.34875	
4.34875	
4.34875	
4.35181	
4.36096	
4.35181	
4.35028	
4.34875	
4.34723	
4.34875	
4.34418	
4.34265	
4.3396	
4.3396	
4.33197	
4.33044	
4.33197	
4.33044	
4.33655	
4.34113	
4.35028	
4.34875	
4.34875	
4.3457	
4.35028	
4.35333	
4.34875	
4.34265	
4.33655	
4.32892	
4.33502	
4.33502	
4.32587	
4.32892	
4.33502	
4.33502	
4.33807	
4.33807	
4.35486	
4.36249	
4.34265	
4.31976	
4.31671	
4.31213	
4.3045	
4.31366	
4.31061	
4.31061	
4.30603	
4.31061	
4.32129	
4.31519	
4.31213	
4.32129	
4.33197	
4.33807	
4.32892	
4.32281	
4.32434	
4.32434	
4.33044	
4.33502	
4.33197	
4.33807	
4.3396	
4.3396	
4.3396	
4.3396	
4.35791	
4.36707	
4.36401	
4.35486	
4.35028	
4.35486	
4.35181	
4.35486	
4.35791	
4.36096	
4.35181	
4.33807	
4.33655	
4.33197	
4.33502	
4.34723	
4.34113	
4.32587	
4.31976	
4.32129	
4.32129	
4.32129	
4.32129	
4.32281	
4.32892	
4.32892	
4.32281	
4.33044	
4.3396	
4.3396	
4.34418	
4.35791	
4.36096	
4.35944	
4.35486	
4.34723	
4.34265	
4.32281	
4.30756	
4.31976	
4.32892	
4.32434	
4.32129	
4.32739	
4.33807	
4.34418	
4.34113	
4.32892	
4.32129	
4.30756	
4.3045	
4.30908	
4.31366	
4.31213	
4.3045	
4.30756	
4.3045	
4.3045	
4.31671	
4.3396	
4.35638	
4.36096	
4.35944	
4.37164	
4.36859	
4.36249	
4.35028	
4.34418	
4.3396	
4.3457	
4.3457	
4.3396	
4.34113	
4.33807	
4.32739	
4.32434	
4.33502	
4.32739	
4.32892	
4.32892	
4.33044	
4.33502	
4.34265	
4.34723	
4.34875	
4.35333	
4.35181	
4.34723	
4.34418	
4.34265	
4.3396	
4.33655	
4.3396	
4.34113	
4.33655	
4.33655	
4.33502	
4.32739	
4.32587	
4.32892	
4.33044	
4.33502	
4.34723	
4.35333	
4.35333	
4.35181	
4.34875	
4.32739	
4.30756	
4.29993	
4.29688	
4.31366	
4.32587	
4.32587	
4.3396	
4.34418	
4.3457	
4.33655	
4.34265	
4.32587	
4.31671	
4.31366	
4.31213	
4.31213	
4.31671	
4.32281	
4.33197	
4.34265	
4.33807	
4.32739	
4.32281	
4.32587	
4.31824	
4.31824	
4.32281	
4.32739	
4.33044	
4.33044	
4.33197	
4.32892	
4.33197	
4.32587	
4.32739	
4.33502	
4.33807	
4.33655	
4.33502	
4.3396	
4.3396	
4.33807	
4.3457	
4.33502	
4.33044	
4.32892	
4.32587	
4.32892	
4.33502	
4.33807	
4.34265	
4.34418	
4.34875	
4.3457	
4.34418	
4.34418	
4.34875	
4.34418	
4.34418	
4.33655	
4.33502	
4.33502	
4.33044	
4.33044	
4.32739	
4.33197	
4.32434	
4.32129	
4.32587	
4.31976	
4.31671	
4.29993	
4.2923	
4.28619	
4.29077	
4.31519	
4.3457	
4.35791	
4.35486	
4.34723	
4.3396	
4.33502	
4.33197	
4.31061	
4.29535	
4.29535	
4.28619	
4.2923	
4.31519	
4.32739	
4.33502	
4.35638	
4.35181	
4.34723	
4.34418	
4.33655	
4.32892	
4.32587	
4.32892	
4.33502	
4.33655	
4.33502	
4.33197	
4.32892	
4.32587	
4.32281	
4.32129	
4.32129	
4.32281	
4.32434	
4.32587	
4.32739	
4.32739	
4.31976	
4.32129	
4.32129	
4.31671	
4.31213	
4.31061	
4.31213	
4.31366	
4.31976	
4.31671	
4.32129	
4.31976	
4.31976	
4.31824	
4.31061	
4.30908	
4.30756	
4.30603	
4.30908	
4.31519	
4.32281	
4.32739	
4.32434	
4.32434	
4.32587	
4.33197	
4.33044	
4.31824	
4.31366	
4.31061	
4.31366	
4.31366	
4.31366	
4.31824	
4.31976	
4.32587	
4.30756	
4.29535	
4.28925	
4.28314	
4.29077	
4.31213	
4.34265	
4.34418	
4.34723	
4.34265	
4.33807	
4.32434	
4.31671	
4.30756	
4.30603	
4.2923	
4.27856	
4.28009	
4.28925	
4.3045	
4.31213	
4.32587	
4.33197	
4.31976	
4.31213	
4.31213	
4.30908	
4.31366	
4.31671	
4.31671	
4.31976	
4.32281	
4.32129	
4.32129	
4.31671	
4.31671	
4.31061	
4.31366	
4.31519	
4.31671	
4.31366	
4.31061	
4.30756	
4.30756	
4.3045	
4.30756	
4.30756	
4.30908	
4.31366	
4.31366	
4.31824	
4.30756	
4.30145	
4.29993	
4.30145	
4.30756	
4.30908	
4.32129	
4.31671	
4.31519	
4.30908	
4.30908	
4.30145	
4.29077	
4.29077	
4.2923	
4.29993	
4.2984	
4.2984	
4.30603	
4.31213	
4.31671	
4.31366	
4.31366	
4.31519	
4.31824	
4.32129	
4.32434	
4.32739	
4.32434	
4.31824	
4.31519	
4.3045	
4.30145	
4.31213	
4.31061	
4.31213	
4.31366	
4.31366	
4.3045	
4.30145	
4.2984	
4.30603	
4.32129	
4.31824	
4.31366	
4.31061	
4.30908	
4.31061	
4.30908	
4.30908	
4.30908	
4.29077	
4.29077	
4.29688	
4.31671	
4.33502	
4.34418	
4.3457	
4.35333	
4.34265	
4.33655	
4.31671	
4.2984	
4.28314	
4.26941	
4.27094	
4.26483	
4.26636	
4.28772	
4.29382	
4.30145	
4.2984	
4.2923	
4.29535	
4.29077	
4.2984	
4.30908	
4.31824	
4.31976	
4.31519	
4.30908	
4.31061	
4.31061	
4.30756	
4.30145	
4.30756	
4.31061	
4.31061	
4.30908	
4.30908	
4.2984	
4.30145	
4.29993	
4.29688	
4.29382	
4.28772	
4.28314	
4.28467	
4.27856	
4.28009	
4.28467	
4.28619	
4.29077	
4.29382	
4.2984	
4.2984	
4.29993	
4.3045	
4.2984	
4.29382	
4.29077	
4.30908	
4.32587	
4.33197	
4.33197	
4.32281	
4.31824	
4.32129	
4.32129	
4.31976	
4.31824	
4.31824	
4.31213	
4.3045	
4.2984	
4.29688	
4.29382	
4.29688	
4.28772	
4.27094	
4.27094	
4.26636	
4.26788	
4.26941	
4.29382	
4.30603	
4.31061	
4.33197	
4.3457	
4.3457	
4.3396	
4.34113	
4.33807	
4.32739	
4.32281	
4.29993	
4.28619	
4.27704	
4.26941	
4.27399	
4.27704	
4.27551	
4.27399	
4.29077	
4.29535	
4.29688	
4.2984	
4.3045	
4.31213	
4.31061	
4.30908	
4.30603	
4.3045	
4.2984	
4.29688	
4.29993	
4.30908	
4.30756	
4.30603	
4.30756	
4.31061	
4.30908	
4.30756	
4.29535	
4.2984	
4.29993	
4.31061	
4.31213	
4.30603	
4.29688	
4.29688	
4.30603	
4.30908	
4.3045	
4.31213	
4.31061	
4.30908	
4.31061	
4.31366	
4.31061	
4.30756	
4.30908	
4.30756	
4.2984	
4.2923	
4.28619	
4.28314	
4.28619	
4.29993	
4.31213	
4.31671	
4.29993	
4.28467	
4.28467	
4.28619	
4.28619	
4.29382	
4.30908	
4.2923	
4.28162	
4.27704	
4.28009	
4.27704	
4.28619	
4.29382	
4.30908	
4.30756	
4.32434	
4.34723	
4.34113	
4.32129	
4.31824	
4.31976	
4.31671	
4.31519	
4.30756	
4.29993	
4.2923	
4.28314	
4.26941	
4.28009	
4.28467	
4.29077	
4.29993	
4.31061	
4.3045	
4.29688	
4.29688	
4.29535	
4.29382	
4.2923	
4.29382	
4.2984	
4.28772	
4.28314	
4.28162	
4.27856	
4.28619	
4.28772	
4.2923	
4.2923	
4.29382	
4.28925	
4.29993	
4.3045	
4.2984	
4.29382	
4.2984	
4.30603	
4.31671	
4.31519	
4.31519	
4.31061	
4.2984	
4.30145	
4.29993	
4.29535	
4.29382	
4.29993	
4.30756	
4.30908	
4.3045	
4.30756	
4.30145	
4.29688	
4.29688	
4.29382	
4.28772	
4.28467	
4.28009	
4.27856	
4.28162	
4.28314	
4.28925	
4.27704	
4.27399	
4.27094	
4.27551	
4.28314	
4.29382	
4.29535	
4.31213	
4.31061	
4.30756	
4.30756	
4.3045	
4.29688	
4.30145	
4.31366	
4.30756	
4.3045	
4.29688	
4.29382	
4.31671	
4.32587	
4.32892	
4.32587	
4.31519	
4.30756	
4.29382	
4.28925	
4.28162	
4.27704	
4.26941	
4.27399	
4.28467	
4.28619	
4.2984	
4.3045	
4.31061	
4.31976	
4.30908	
4.3045	
4.3045	
4.29535	
4.2984	
4.29993	
4.30145	
4.30145	
4.2984	
4.2984	
4.29382	
4.29535	
4.29688	
4.29077	
4.28619	
4.29688	
4.30603	
4.30145	
4.29382	
4.28772	
4.29382	
4.29688	
4.28925	
4.28925	
4.28162	
4.27551	
4.26331	
4.26636	
4.28467	
4.29688	
4.31061	
4.32587	
4.32739	
4.31671	
4.30908	
4.29688	
4.30603	
4.31366	
4.31519	
4.31519	
4.31061	
4.30145	
4.2984	
4.3045	
4.2984	
4.27704	
4.26636	
4.26941	
4.27094	
4.28314	
4.29382	
4.29993	
4.30603	
4.31366	
4.31519	
4.30603	
4.30145	
4.2984	
4.30756	
4.30145	
4.30145	
4.30145	
4.29688	
4.29382	
4.28925	
4.28772	
4.29993	
4.32129	
4.31671	
4.30603	
4.3045	
4.31366	
4.31213	
4.30603	
4.29535	
4.28162	
4.26331	
4.26178	
4.27856	
4.28009	
4.28619	
4.2923	
4.29993	
4.30145	
4.28925	
4.28925	
4.29535	
4.30756	
4.30756	
4.30145	
4.29993	
4.29993	
4.29993	
4.3045	
4.29993	
4.29535	
4.2923	
4.2923	
4.29077	
4.2923	
4.2923	
4.28619	
4.28619	
4.28314	
4.28162	
4.28009	
4.28467	
4.28314	
4.28009	
4.28009	
4.28009	
4.28619	
4.29993	
4.30603	
4.29382	
4.28314	
4.28467	
4.28467	
4.28467	
4.29077	
4.29688	
4.3045	
4.30908	
4.30603	
4.30603	
4.29077	
4.29535	
4.29688	
4.2923	
4.29077	
4.28467	
4.28467	
4.28467	
4.29077	
4.28314	
4.27856	
4.28619	
4.29077	
4.29382	
4.29382	
4.29077	
4.28772	
4.30603	
4.31976	
4.32129	
4.30908	
4.30145	
4.30603	
4.30603	
4.2984	
4.29077	
4.28314	
4.27704	
4.28009	
4.28162	
4.29077	
4.2923	
4.28925	
4.29535	
4.29535	
4.30145	
4.30145	
4.29688	
4.28925	
4.28314	
4.29077	
4.3045	
4.30756	
4.3045	
4.29382	
4.29535	
4.2923	
4.2984	
4.30145	
4.2923	
4.28314	
4.26025	
4.2511	
4.2511	
4.25415	
4.25568	
4.26331	
4.27704	
4.28162	
4.28314	
4.2923	
4.2984	
4.30145	
4.3045	
4.31061	
4.31671	
4.3045	
4.29535	
4.29077	
4.27856	
4.26788	
4.26941	
4.28162	
4.28314	
4.28467	
4.3045	
4.31519	
4.31824	
4.32892	
4.32281	
4.32281	
4.31366	
4.3045	
4.2923	
4.2923	
4.29077	
4.28925	
4.2923	
4.2984	
4.30603	
4.2984	
4.2984	
4.30756	
4.29688	
4.29077	
4.29535	
4.29993	
4.2984	
4.2984	
4.2923	
4.29535	
4.30908	
4.31366	
4.32281	
4.31976	
4.31519	
4.31061	
4.30145	
4.3045	
4.29077	
4.28162	
4.27399	
4.26636	
4.23889	
4.245	
4.24805	
4.26178	
4.26941	
4.28009	
4.28772	
4.29382	
4.29382	
4.28619	
4.28925	
4.29077	
4.28619	
4.29688	
4.3045	
4.30756	
4.29993	
4.29535	
4.29382	
4.28619	
4.2923	
4.29688	
4.30908	
4.31366	
4.31671	
4.31366	
4.30756	
4.30603	
4.31366	
4.31671	
4.31061	
4.2984	
4.29688	
4.3045	
4.31213	
4.31061	
4.31366	
4.31366	
4.2984	
4.2984	
4.29535	
4.28467	
4.28619	
4.3045	
4.32587	
4.32892	
4.32281	
4.31519	
4.3045	
4.2923	
4.29077	
4.28772	
4.27856	
4.26636	
4.25568	
4.23889	
4.24957	
4.2572	
4.26941	
4.28925	
4.29993	
4.30908	
4.31061	
4.30756	
4.29535	
4.28467	
4.27399	
4.26331	
4.28162	
4.30145	
4.30756	
4.30603	
4.29993	
4.30756	
4.30145	
4.30603	
4.3045	
4.30756	
4.31671	
4.31213	
4.31061	
4.29993	
4.30145	
4.30145	
4.3045	
4.3045	
4.30145	
4.3045	
4.2984	
4.28619	
4.27856	
4.28009	
4.29077	
4.29993	
4.31061	
4.30908	
4.3045	
4.30603	
4.30756	
4.2984	
4.2984	
4.3045	
4.29535	
4.29382	
4.29382	
4.29993	
4.31213	
4.30756	
4.30145	
4.29535	
4.28772	
4.29382	
4.29535	
4.3045	
4.29535	
4.27551	
4.26178	
4.2511	
4.24805	
4.26636	
4.27704	
4.28925	
4.29993	
4.29077	
4.28467	
4.29077	
4.29993	
4.30145	
4.30145	
4.30145	
4.29688	
4.29382	
4.29077	
4.29688	
4.3045	
4.29993	
4.29077	
4.28619	
4.28925	
4.2923	
4.29535	
4.29535	
4.2984	
4.29382	
4.30603	
4.29688	
4.28314	
4.27551	
4.27399	
4.27856	
4.28467	
4.29688	
4.3045	
4.31976	
4.31366	
4.3045	
4.29688	
4.28314	
4.28162	
4.29688	
4.31213	
4.30145	
4.29382	
4.28925	
4.29382	
4.29993	
4.3045	
4.30908	
4.31213	
4.30603	
4.29535	
4.2923	
4.28619	
4.28925	
4.28619	
4.28467	
4.28314	
4.28009	
4.27551	
4.28009	
4.28467	
4.28925	
4.29077	
4.29535	
4.28772	
4.28467	
4.27856	
4.26178	
4.25415	
4.24347	
4.2511	
4.26178	
4.26788	
4.27399	
4.28314	
4.30145	
4.31519	
4.30908	
4.29535	
4.28772	
4.28467	
4.29382	
4.29535	
4.30145	
4.29535	
4.29077	
4.29077	
4.28925	
4.2923	
4.29535	
4.2984	
4.29077	
4.28162	
4.28619	
4.28009	
4.27856	
4.27856	
4.27704	
4.26483	
4.26636	
4.27856	
4.29382	
4.31213	
4.32434	
4.31519	
4.30145	
4.3045	
4.30145	
4.29993	
4.30145	
4.30145	
4.29382	
4.2984	
4.29535	
4.2984	
4.29993	
4.29382	
4.29077	
4.29382	
4.2923	
4.29382	
4.29382	
4.28314	
4.28009	
4.28619	
4.28925	
4.28772	
4.28467	
4.28314	
4.28925	
4.29077	
4.29535	
4.29993	
4.30756	
4.31976	
4.31671	
4.31671	
4.30603	
4.30145	
4.2923	
4.28619	
4.27856	
4.27856	
4.26025	
4.25415	
4.25262	
4.26331	
4.27856	
4.28162	
4.28314	
4.29077	
4.29382	
4.29382	
4.28467	
4.28925	
4.2923	
4.29077	
4.29993	
4.30145	
4.29993	
4.2923	
4.28619	
4.2923	
4.29688	
4.29535	
4.29535	
4.28925	
4.28925	
4.28772	
4.28467	
4.27856	
4.26788	
4.26636	
4.26483	
4.27856	
4.28619	
4.28619	
4.28009	
4.27399	
4.28162	
4.28772	
4.30145	
4.3045	
4.30145	
4.2984	
4.28925	
4.29077	
4.29382	
4.28162	
4.28467	
4.2923	
4.29077	
4.28467	
4.28619	
4.2923	
4.30145	
4.31061	
4.31976	
4.31519	
4.30145	
4.29077	
4.28772	
4.30756	
4.31519	
4.31366	
4.31671	
4.31824	
4.31671	
4.32587	
4.32281	
4.31366	
4.31824	
4.32281	
4.31671	
4.31213	
4.31519	
4.31366	
4.31061	
4.30603	
4.30756	
4.30603	
4.30756	
4.31061	
4.31061	
4.31824	
4.31366	
4.30603	
4.32281	
4.33197	
4.33502	
4.32281	
4.32129	
4.31213	
4.3045	
4.29688	
4.29382	
4.29535	
4.29077	
4.28467	
4.28925	
4.29688	
4.30145	
4.29688	
4.3045	
4.30145	
4.30145	
4.29688	
4.29535	
4.29535	
4.29535	
4.29535	
4.29382	
4.29382	
4.27856	
4.28009	
4.28619	
4.29535	
4.30145	
4.31671	
4.32281	
4.33197	
4.32739	
4.32281	
4.30603	
4.29688	
4.29077	
4.2923	
4.28619	
4.28314	
4.28162	
4.28467	
4.28925	
4.29688	
4.30145	
4.31519	
4.31976	
4.31213	
4.3045	
4.30145	
4.29688	
4.29535	
4.29993	
4.2984	
4.29077	
4.28772	
4.28925	
4.29993	
4.2923	
4.29535	
4.31519	
4.32129	
4.31976	
4.31671	
4.31061	
4.30603	
4.2984	
4.29077	
4.29382	
4.2984	
4.30908	
4.31213	
4.31213	
4.31061	
4.30603	
4.30145	
4.2923	
4.31061	
4.32129	
4.32281	
4.32739	
4.32281	
4.31824	
4.31061	
4.29535	
4.28314	
4.27551	
4.27094	
4.2572	
4.2511	
4.25262	
4.26331	
4.27399	
4.29535	
4.31061	
4.32129	
4.33044	
4.33044	
4.32129	
4.30145	
4.29077	
4.29382	
4.30603	
4.30145	
4.29382	
4.28619	
4.2923	
4.29688	
4.29993	
4.29688	
4.2923	
4.2923	
4.27856	
4.27856	
4.28314	
4.29077	
4.29688	
4.2984	
4.29382	
4.30145	
4.31671	
4.31061	
4.2984	
4.29535	
4.2984	
4.31061	
4.31976	
4.31519	
4.3045	
4.29688	
4.29535	
4.2923	
4.29077	
4.28772	
4.28314	
4.27856	
4.26941	
4.26941	
4.28162	
4.28314	
4.27856	
4.26636	
4.25873	
4.24042	
4.23279	
4.24805	
4.27094	
4.2984	
4.31366	
4.31061	
4.28314	
4.27094	
4.28467	
4.30145	
4.31976	
4.31671	
4.29993	
4.29993	
4.29535	
4.29688	
4.2984	
4.2984	
4.29535	
4.2984	
4.28925	
4.26025	
4.24957	
4.26941	
4.29688	
4.32892	
4.33655	
4.30756	
4.30145	
4.29382	
4.29382	
4.28772	
4.29993	
4.3045	
4.31061	
4.30908	
4.31061	
4.31824	
4.30908	
4.30908	
4.30756	
4.30603	
4.30145	
4.2984	
4.30603	
4.3045	
4.30145	
4.3045	
4.2984	
4.29993	
4.29535	
4.2984	
4.29993	
4.30145	
4.29993	
4.2984	
4.29993	
4.30145	
4.30145	
4.30145	
4.30145	
4.29993	
4.30145	
4.30756	
4.3045	
4.3045	
4.30756	
4.30603	
4.30908	
4.30145	
4.29535	
4.28925	
4.28772	
4.28619	
4.27856	
4.29077	
4.30145	
4.31366	
4.31366	
4.30145	
4.29535	
4.29535	
4.29688	
4.29993	
4.29993	
4.29688	
4.2984	
4.29688	
4.2923	
4.29535	
4.29993	
4.30603	
4.30603	
4.30756	
4.2984	
4.30145	
4.2923	
4.28467	
4.28619	
4.29535	
4.3045	
4.31061	
4.30908	
4.2923	
4.28467	
4.27704	
4.27856	
4.28772	
4.28467	
4.28467	
4.29077	
4.30145	
4.29993	
4.30756	
4.32434	
4.32281	
4.32129	
4.31824	
4.3045	
4.29382	
4.3045	
4.32129	
4.3457	
4.37317	
4.35028	
4.31366	
4.29077	
4.30603	
4.30756	
4.30756	
4.31213	
4.31824	
4.32587	
4.33807	
4.33502	
4.32892	
4.32434	
4.31976	
4.29535	
4.30603	
4.31519	
4.32129	
4.32587	
4.33044	
4.3396	
4.33655	
4.32739	
4.31976	
4.31671	
4.31824	
4.31824	
4.32587	
4.32587	
4.32129	
4.32739	
4.32739	
4.32739	
4.32281	
4.32434	
4.32281	
4.32739	
4.33197	
4.33807	
4.3396	
4.33502	
4.33197	
4.32587	
4.32129	
4.32434	
4.31366	
4.30145	
4.31366	
4.32739	
4.33655	
4.32892	
4.31976	
4.31671	
4.31519	
4.32129	
4.31519	
4.30756	
4.31213	
4.32129	
4.33197	
4.34723	
4.35181	
4.34875	
4.3457	
4.34113	
4.3396	
4.34418	
4.33655	
4.33044	
4.33197	
4.33044	
4.32892	
4.31976	
4.31213	
4.29077	
4.28467	
4.28467	
4.29077	
4.30908	
4.32739	
4.35944	
4.37622	
4.38538	
4.39301	
4.40063	
4.40369	
4.38232	
4.37012	
4.37012	
4.3457	
4.32587	
4.30603	
4.28772	
4.27551	
4.27094	
4.28467	
4.31519	
4.34265	
4.35028	
4.34875	
4.34265	
4.34418	
4.3396	
4.33807	
4.34418	
4.3457	
4.3396	
4.33655	
4.32587	
4.31671	
4.31519	
4.31213	
4.31824	
4.32129	
4.32129	
4.31671	
4.31671	
4.32281	
4.32892	
4.33197	
4.34265	
4.33807	
4.32434	
4.31519	
4.31671	
4.32587	
4.33044	
4.33197	
4.33197	
4.33502	
4.34265	
4.34418	
4.34418	
4.3396	
4.33807	
4.33655	
4.33044	
4.32739	
4.33197	
4.3396	
4.33655	
4.34113	
4.33655	
4.33502	
4.33044	
4.33197	
4.33197	
4.33197	
4.33197	
4.33197	
4.32129	
4.31519	
4.31519	
4.31213	
4.32281	
4.33807	
4.33502	
4.32587	
4.33502	
4.33807	
4.32892	
4.32739	
4.33197	
4.32434	
4.31519	
4.31824	
4.32587	
4.31519	
4.29688	
4.29382	
4.31061	
4.32892	
4.32739	
4.33044	
4.3396	
4.34723	
4.34723	
4.3396	
4.32892	
4.32739	
4.33044	
4.34723	
4.34418	
4.34113	
4.33807	
4.33197	
4.33655	
4.3396	
4.34418	
4.34418	
4.35028	
4.3457	
4.3457	
4.3396	
4.3396	
4.33655	
4.33044	
4.32587	
4.32129	
4.31824	
4.31976	
4.32587	
4.32739	
4.32739	
4.3457	
4.35333	
4.35486	
4.3457	
4.34113	
4.33807	
4.34113	
4.34113	
4.3396	
4.33807	
4.33655	
4.33502	
4.33502	
4.33502	
4.33197	
4.32587	
4.32892	
4.33044	
4.33807	
4.33807	
4.33807	
4.33197	
4.33044	
4.32892	
4.33044	
4.32434	
4.32129	
4.31366	
4.31519	
4.33197	
4.34265	
4.33197	
4.32892	
4.33197	
4.3457	
4.35333	
4.34113	
4.33044	
4.31824	
4.3045	
4.29077	
4.27856	
4.28162	
4.28467	
4.28772	
4.2984	
4.30756	
4.31519	
4.33044	
4.32587	
4.3457	
4.36096	
4.37469	
4.36859	
4.37012	
4.37317	
4.37164	
4.35791	
4.36249	
4.37164	
4.36249	
4.35944	
4.35486	
4.35638	
4.35181	
4.35181	
4.35028	
4.35181	
4.34875	
4.35181	
4.35486	
4.35638	
4.35028	
4.34723	
4.35028	
4.35028	
4.35181	
4.35028	
4.35181	
4.3457	
4.34265	
4.34418	
4.3457	
4.35333	
4.35181	
4.34875	
4.34113	
4.33807	
4.34265	
4.34418	
4.34265	
4.3457	
4.34265	
4.34723	
4.34723	
4.3457	
4.34418	
4.34875	
4.3457	
4.3457	
4.34875	
4.34723	
4.35181	
4.34875	
4.3396	
4.33197	
4.33807	
4.33807	
4.3396	
4.3396	
4.33807	
4.34723	
4.35333	
4.35486	
4.35333	
4.35028	
4.3457	
4.34875	
4.35028	
4.35333	
4.35028	
4.3457	
4.34113	
4.34265	
4.35028	
4.35333	
4.35638	
4.35181	
4.34875	
4.35028	
4.34418	
4.33807	
4.33807	
4.34265	
4.35028	
4.35181	
4.3396	
4.33197	
4.33197	
4.35181	
4.37317	
4.38385	
4.38232	
4.38232	
4.3808	
4.37622	
4.36707	
4.35181	
4.3396	
4.32587	
4.32587	
4.32739	
4.31824	
4.31824	
4.32434	
4.33197	
4.35028	
4.35486	
4.35791	
4.35791	
4.36249	
4.36859	
4.36707	
4.35944	
4.36249	
4.35791	
4.35791	
4.35638	
4.34875	
4.34265	
4.34113	
4.33807	
4.33197	
4.33655	
4.33502	
4.33807	
4.34113	
4.34418	
4.35333	
4.35333	
4.36249	
4.37012	
4.36707	
4.35791	
4.35638	
4.35486	
4.35181	
4.35028	
4.35028	
4.35028	
4.34875	
4.34418	
4.3396	
4.3396	
4.33197	
4.33655	
4.33502	
4.3457	
4.34723	
4.34875	
4.35486	
4.36401	
4.3808	
4.37317	
4.36096	
4.35791	
4.36249	
4.36249	
4.37469	
4.37164	
4.36707	
4.36249	
4.36096	
4.36096	
4.35333	
4.35181	
4.34723	
4.35028	
4.34418	
4.33655	
4.32739	
4.33502	
4.34113	
4.34418	
4.35486	
4.36249	
4.36401	
4.37012	
4.36401	
4.35638	
4.35028	
4.31976	
4.30145	
4.29535	
4.29993	
4.31671	
4.32587	
4.34113	
4.36859	
4.39301	
4.41132	
4.39148	
4.37622	
4.35791	
4.34723	
4.34875	
4.35944	
4.3457	
4.33502	
4.33502	
4.33655	
4.34875	
4.34875	
4.35028	
4.35791	
4.35944	
4.3457	
4.34723	
4.35028	
4.3457	
4.3457	
4.34265	
4.3457	
4.34875	
4.34875	
4.34418	
4.33502	
4.33655	
4.33502	
4.33502	
4.32739	
4.34113	
4.34265	
4.35181	
4.35791	
4.36096	
4.35791	
4.34875	
4.34723	
4.34875	
4.35486	
4.35791	
4.36096	
4.36401	
4.36859	
4.35944	
4.35486	
4.35638	
4.35181	
4.35028	
4.34875	
4.34723	
4.34418	
4.3396	
4.33655	
4.33655	
4.32892	
4.32587	
4.31519	
4.29993	
4.29382	
4.2984	
4.31061	
4.31824	
4.34265	
4.36249	
4.37775	
4.37775	
4.38385	
4.37927	
4.36401	
4.35486	
4.35028	
4.34875	
4.34723	
4.33044	
4.32892	
4.32892	
4.33197	
4.32739	
4.33197	
4.35638	
4.35333	
4.35028	
4.34875	
4.34113	
4.34723	
4.3457	
4.34113	
4.34265	
4.34418	
4.34113	
4.34113	
4.32587	
4.32281	
4.32281	
4.31976	
4.31519	
4.32434	
4.32892	
4.34265	
4.3457	
4.33655	
4.33502	
4.3396	
4.34723	
4.34113	
4.33655	
4.33807	
4.3396	
4.34418	
4.34113	
4.33655	
4.32892	
4.33502	
4.34265	
4.34875	
4.35486	
4.35333	
4.34723	
4.3396	
4.34418	
4.35333	
4.34875	
4.34113	
4.3396	
4.33502	
4.33655	
4.33502	
4.32739	
4.32281	
4.33502	
4.34113	
4.34265	
4.34113	
4.33502	
4.32434	
4.32281	
4.31213	
4.30145	
4.3045	
4.30145	
4.30603	
4.30756	
4.35028	
4.37012	
4.37927	
4.37927	
4.36859	
4.35486	
4.34265	
4.33197	
4.32434	
4.31519	
4.2984	
4.29993	
4.31824	
4.33197	
4.33807	
4.33502	
4.3457	
4.34265	
4.3396	
4.33807	
4.33655	
4.33197	
4.32739	
4.32587	
4.32281	
4.31824	
4.31824	
4.31976	
4.32587	
4.32892	
4.32587	
4.32129	
4.31824	
4.31976	
4.32129	
4.31976	
4.31671	
4.31976	
4.32434	
4.32587	
4.32587	
4.33044	
4.33044	
4.3457	
4.34875	
4.3457	
4.3396	
4.33197	
4.32587	
4.32434	
4.32281	
4.31671	
4.31976	
4.31213	
4.30603	
4.30908	
4.31213	
4.31671	
4.32129	
4.32587	
4.32739	
4.33044	
4.32739	
4.32129	
4.31519	
4.30756	
4.30756	
4.31519	
4.32892	
4.32434	
4.32434	
4.31976	
4.32129	
4.32434	
4.31976	
4.31519	
4.31519	
4.31366	
4.31824	
4.32739	
4.32892	
4.32739	
4.32739	
4.32892	
4.32739	
4.32739	
4.32129	
4.32892	
4.32434	
4.32587	
4.32739	
4.32129	
4.31519	
4.31976	
4.31824	
4.31671	
4.32129	
4.32129	
4.31519	
4.31671	
4.31519	
4.31061	
4.30603	
4.31519	
4.32434	
4.32587	
4.32281	
4.32434	
4.32129	
4.32129	
4.31824	
4.32281	
4.32281	
4.32739	
4.32587	
4.32587	
4.32281	
4.32281	
4.32587	
4.32281	
4.31824	
4.31213	
4.31519	
4.31976	
4.32434	
4.32129	
4.31671	
4.31519	
4.30908	
4.30603	
4.30145	
4.29993	
4.2984	
4.30603	
4.34113	
4.35028	
4.34265	
4.33044	
4.32739	
4.32281	
4.31366	
4.30603	
4.29688	
4.28772	
4.27856	
4.27856	
4.29077	
4.2984	
4.3045	
4.30603	
4.31976	
4.32281	
4.31976	
4.31976	
4.32281	
4.31671	
4.30756	
4.30603	
4.30908	
4.31061	
4.31366	
4.31519	
4.31824	
4.32129	
4.32281	
4.31976	
4.32281	
4.31976	
4.31519	
4.30756	
4.31061	
4.30603	
4.31519	
4.31366	
4.30908	
4.30756	
4.30603	
4.30756	
4.30145	
4.2984	
4.28162	
4.28009	
4.28619	
4.30145	
4.3045	
4.30756	
4.30756	
4.31061	
4.31519	
4.31213	
4.31519	
4.31366	
4.31366	
4.32129	
4.33655	
4.32587	
4.31519	
4.31519	
4.31824	
4.31976	
4.31824	
4.31671	
4.31671	
4.32129	
4.32129	
4.31976	
4.32129	
4.32434	
4.31824	
4.30145	
4.2984	
4.29535	
4.29382	
4.29688	
4.29993	
4.31061	
4.30908	
4.31366	
4.32129	
4.32434	
4.31976	
4.30603	
4.3045	
4.31213	
4.31671	
4.31366	
4.31519	
4.31213	
4.31213	
4.31976	
4.31824	
4.31519	
4.31366	
4.31519	
4.31213	
4.31519	
4.31213	
4.31366	
4.30908	
4.30756	
4.30603	
4.30145	
4.30145	
4.29993	
4.29993	
4.30756	
4.31213	
4.31213	
4.33502	
4.3457	
4.34875	
4.3457	
4.33502	
4.32129	
4.30756	
4.29382	
4.28772	
4.27399	
4.26025	
4.26025	
4.25415	
4.26636	
4.28314	
4.28619	
4.28925	
4.31366	
4.32434	
4.32892	
4.33044	
4.32129	
4.31976	
4.31213	
4.31671	
4.32129	
4.32129	
4.3045	
4.2984	
4.29993	
4.31366	
4.31671	
4.31366	
4.29993	
4.29535	
4.29993	
4.31061	
4.31366	
4.31213	
4.31213	
4.31061	
4.31824	
4.31519	
4.30908	
4.29993	
4.2984	
4.2923	
4.29382	
4.30603	
4.29993	
4.29993	
4.30603	
4.31061	
4.31671	
4.31519	
4.30908	
4.30756	
4.31366	
4.31671	
4.31824	
4.31213	
4.31213	
4.31824	
4.31213	
4.29688	
4.28925	
4.28772	
4.29077	
4.29535	
4.30756	
4.31061	
4.31671	
4.31519	
4.33044	
4.34265	
4.34418	
4.33655	
4.33655	
4.3396	
4.32739	
4.30908	
4.29688	
4.28925	
4.28619	
4.27094	
4.27551	
4.28314	
4.2984	
4.30603	
4.31213	
4.30756	
4.31366	
4.31061	
4.30756	
4.3045	
4.31061	
4.31366	
4.31366	
4.30908	
4.30145	
4.30145	
4.29535	
4.29382	
4.29077	
4.2923	
4.30145	
4.30908	
4.31061	
4.32892	
4.33197	
4.32129	
4.31519	
4.30756	
4.3045	
4.30145	
4.3045	
4.30756	
4.31213	
4.31366	
4.30756	
4.30603	
4.30145	
4.2984	
4.30603	
4.30603	
4.3045	
4.30145	
4.3045	
4.30603	
4.30603	
4.29993	
4.30145	
4.2984	
4.29382	
4.28925	
4.30145	
4.31213	
4.31366	
4.31213	
4.30603	
4.29993	
4.28925	
4.28009	
4.27856	
4.27399	
4.27704	
4.28772	
4.2923	
4.2984	
4.3045	
4.32129	
4.32129	
4.32281	
4.31213	
4.31213	
4.32129	
4.31824	
4.30908	
4.30603	
4.32434	
4.3396	
4.3396	
4.33197	
4.32587	
4.32129	
4.31366	
4.29993	
4.29688	
4.29382	
4.27704	
4.26941	
4.27094	
4.28162	
4.28162	
4.28619	
4.28925	
4.2984	
4.3045	
4.30756	
4.31213	
4.31061	
4.31213	
4.31213	
4.31519	
4.31061	
4.31061	
4.31976	
4.31366	
4.29993	
4.29993	
4.2923	
4.29688	
4.28925	
4.28619	
4.28925	
4.29993	
4.29993	
4.29993	
4.30145	
4.29535	
4.29535	
4.30603	
4.30603	
4.29993	
4.29688	
4.2984	
4.30145	
4.2984	
4.29993	
4.30756	
4.3045	
4.30603	
4.30908	
4.31061	
4.31671	
4.31061	
4.30908	
4.29535	
4.28467	
4.28314	
4.28467	
4.28772	
4.29077	
4.29382	
4.29382	
4.29993	
4.2984	
4.29993	
4.30756	
4.30908	
4.31366	
4.31213	
4.30145	
4.3045	
4.3045	
4.30756	
4.30603	
4.28772	
4.28162	
4.28314	
4.28467	
4.28619	
4.29077	
4.2984	
4.30756	
4.31213	
4.31366	
4.30756	
4.30603	
4.30145	
4.30145	
4.30603	
4.31061	
4.3045	
4.30145	
4.30756	
4.3045	
4.31061	
4.33197	
4.3457	
4.3396	
4.33655	
4.3396	
4.33807	
4.32434	
4.30603	
4.28314	
4.26331	
4.2572	
4.26941	
4.26483	
4.26941	
4.27704	
4.28162	
4.29993	
4.3045	
4.3045	
4.29688	
4.29535	
4.2984	
4.31366	
4.32434	
4.32587	
4.32129	
4.31366	
4.31366	
4.31671	
4.31824	
4.31976	
4.31519	
4.31213	
4.30908	
4.30603	
4.30145	
4.2984	
4.3045	
4.30908	
4.31213	
4.31213	
4.3045	
4.30603	
4.2984	
4.29535	
4.29382	
4.29688	
4.30603	
4.31061	
4.31824	
4.32129	
4.31824	
4.31061	
4.30908	
4.3045	
4.29688	
4.2923	
4.28467	
4.27399	
4.26483	
4.26788	
4.28162	
4.28619	
4.28619	
4.29688	
4.30145	
4.31976	
4.32434	
4.32892	
4.32281	
4.31976	
4.32129	
4.32434	
4.31671	
4.31213	
4.31213	
4.31213	
4.31366	
4.31519	
4.31519	
4.31061	
4.30603	
4.30145	
4.30603	
4.31976	
4.33807	
4.34875	
4.3457	
4.33502	
4.32434	
4.31519	
4.30145	
4.29077	
4.28314	
4.28009	
4.27399	
4.27704	
4.28009	
4.2923	
4.2984	
4.28925	
4.2984	
4.2923	
4.28009	
4.28162	
4.2923	
4.30756	
4.31671	
4.31671	
4.31213	
4.31366	
4.31519	
4.31519	
4.31519	
4.31671	
4.30603	
4.3045	
4.29688	
4.29993	
4.30603	
4.30603	
4.3045	
4.30756	
4.31366	
4.31061	
4.30908	
4.3045	
4.2984	
4.3045	
4.30145	
4.31213	
4.31519	
4.30603	
4.29993	
4.29382	
4.29077	
4.29382	
4.29382	
4.29535	
4.29382	
4.28925	
4.29077	
4.2984	
4.30908	
4.32434	
4.32739	
4.32434	
4.32129	
4.32281	
4.32281	
4.33044	
4.32739	
4.32129	
4.31671	
4.31824	
4.31366	
4.31213	
4.31366	
4.29993	
4.30756	
4.30756	
4.30756	
4.30145	
4.29993	
4.30756	
4.3045	
4.3045	
4.30908	
4.30756	
4.31519	
4.31671	
4.32281	
4.32129	
4.31976	
4.29535	
4.28467	
4.2984	
4.30603	
4.30603	
4.31061	
4.31366	
4.30908	
4.3045	
4.31213	
4.31519	
4.31061	
4.30603	
4.28772	
4.29993	
4.30603	
4.30756	
4.31061	
4.32892	
4.32587	
4.32739	
4.32281	
4.31213	
4.30603	
4.3045	
4.3045	
4.30603	
4.30908	
4.31061	
4.31061	
4.31061	
4.30603	
4.30603	
4.2984	
4.29382	
4.29535	
4.30756	
4.31671	
4.31976	
4.31366	
4.31213	
4.30756	
4.31213	
4.31671	
4.32434	
4.31976	
4.32129	
4.31519	
4.30145	
4.31671	
4.32281	
4.31671	
4.31213	
4.30908	
4.30603	
4.30908	
4.30908	
4.30603	
4.30756	
4.31976	
4.32587	
4.32129	
4.30908	
4.31519	
4.31366	
4.31366	
4.31671	
4.31213	
4.31671	
4.31519	
4.31824	
4.31824	
4.31671	
4.30908	
4.30908	
4.30756	
4.3045	
4.30908	
4.30145	
4.31213	
4.31213	
4.30908	
4.31366	
4.31671	
4.31213	
4.31519	
4.32281	
4.33197	
4.32739	
4.31976	
4.31366	
4.32587	
4.33655	
4.34113	
4.33197	
4.32587	
4.32739	
4.31061	
4.30603	
4.30145	
4.29077	
4.28009	
4.28009	
4.28619	
4.28467	
4.29077	
4.28772	
4.29688	
4.30603	
4.31366	
4.31824	
4.31976	
4.32129	
4.31824	
4.31213	
4.31519	
4.31671	
4.31213	
4.31976	
4.32129	
4.31213	
4.30908	
4.29993	
4.2923	
4.28619	
4.28162	
4.27704	
4.28314	
4.2923	
4.30145	
4.30603	
4.31671	
4.31213	
4.31213	
4.30908	
4.30145	
4.30145	
4.31366	
4.32281	
4.31519	
4.31366	
4.31213	
4.31366	
4.31061	
4.31061	
4.31061	
4.31213	
4.31671	
4.31671	
4.31213	
4.30145	
4.28925	
4.29535	
4.30603	
4.31519	
4.31061	
4.30603	
4.30908	
4.30756	
4.30908	
4.31213	
4.31061	
4.3045	
4.30145	
4.29993	
4.29688	
4.30145	
4.30145	
4.29993	
4.32129	
4.33502	
4.32892	
4.32739	
4.31671	
4.30908	
4.30908	
4.30756	
4.30603	
4.27551	
4.25262	
4.245	
4.245	
4.25873	
4.28314	
4.28467	
4.29993	
4.31824	
4.31366	
4.32281	
4.31824	
4.31519	
4.31824	
4.32587	
4.31519	
4.29688	
4.29382	
4.2923	
4.29535	
4.2923	
4.2923	
4.28619	
4.2923	
4.29382	
4.2984	
4.30145	
4.30756	
4.2984	
4.29535	
4.29077	
4.28925	
4.28619	
4.28009	
4.26788	
4.26941	
4.26788	
4.26636	
4.26788	
4.27856	
4.28772	
4.29382	
4.30603	
4.3045	
4.3045	
4.30756	
4.30908	
4.30756	
4.31213	
4.31213	
4.30756	
4.3045	
4.31213	
4.31213	
4.31519	
4.31519	
4.31671	
4.30908	
4.30908	
4.30908	
4.30145	
4.29993	
4.3045	
4.29688	
4.30145	
4.3045	
4.2984	
4.29382	
4.29688	
4.29688	
4.2984	
4.29993	
4.29382	
4.29382	
4.29535	
4.29382	
4.29993	
4.30908	
4.30756	
4.30603	
4.30603	
4.30145	
4.3045	
4.29993	
4.28772	
4.28619	
4.25873	
4.27704	
4.28925	
4.29535	
4.30145	
4.30603	
4.31976	
4.31824	
4.31366	
4.30145	
4.28619	
4.27399	
4.27094	
4.28162	
4.28925	
4.28619	
4.28314	
4.2984	
4.30603	
4.29535	
4.29688	
4.30908	
4.31976	
4.32129	
4.31213	
4.30145	
4.29382	
4.28925	
4.29535	
4.29688	
4.2984	
4.29993	
4.30756	
4.30908	
4.31213	
4.30908	
4.30145	
4.30756	
4.31519	
4.31824	
4.31519	
4.30908	
4.3045	
4.30145	
4.29688	
4.30603	
4.30908	
4.2984	
4.2984	
4.29993	
4.30145	
4.31061	
4.31213	
4.31061	
4.30603	
4.30756	
4.30145	
4.2984	
4.29688	
4.29535	
4.2923	
4.2923	
4.28009	
4.27856	
4.27399	
4.27704	
4.28619	
4.29993	
4.31061	
4.31824	
4.32434	
4.32129	
4.31213	
4.31061	
4.31213	
4.31671	
4.32892	
4.32129	
4.32281	
4.34113	
4.34265	
4.34113	
4.33197	
4.33044	
4.32281	
4.31213	
4.30145	
4.29382	
4.27704	
4.26483	
4.2572	
4.2572	
4.26331	
4.26788	
4.28009	
4.29688	
4.30908	
4.30756	
4.31213	
4.31671	
4.31824	
4.32892	
4.32892	
4.32434	
4.32892	
4.31824	
4.3045	
4.29077	
4.28467	
4.28619	
4.28467	
4.2923	
4.29535	
4.29535	
4.29535	
4.29535	
4.29688	
4.29382	
4.2923	
4.2984	
4.30756	
4.31519	
4.32739	
4.32434	
4.32434	
4.31671	
4.31824	
4.31366	
4.31366	
4.30908	
4.29993	
4.29382	
4.28619	
4.2923	
4.29688	
4.3045	
4.3045	
4.30603	
4.30756	
4.30908	
4.31213	
4.30908	
4.30756	
4.30908	
4.30603	
4.30756	
4.31824	
4.33197	
4.3396	
4.32434	
4.31671	
4.30756	
4.29993	
4.28925	
4.28314	
4.28925	
4.28772	
4.28925	
4.28619	
4.28772	
4.29535	
4.2984	
4.30756	
4.33197	
4.32434	
4.32129	
4.31519	
4.30908	
4.31366	
4.31061	
4.30603	
4.30145	
4.3045	
4.31061	
4.31976	
4.31671	
4.31061	
4.30756	
4.30908	
4.31213	
4.31213	
4.31061	
4.31824	
4.31671	
4.31366	
4.32434	
4.32892	
4.32434	
4.32129	
4.32892	
4.32587	
4.31519	
4.30603	
4.30603	
4.30145	
4.2984	
4.3045	
4.30603	
4.30603	
4.2984	
4.30145	
4.30908	
4.31213	
4.3045	
4.30756	
4.3045	
4.31213	
4.31366	
4.30756	
4.30603	
4.29382	
4.28772	
4.28925	
4.29688	
4.29688	
4.30145	
4.31061	
4.31824	
4.32281	
4.32281	
4.31976	
4.31976	
4.30756	
4.3045	
4.31671	
4.31976	
4.31061	
4.3045	
4.30603	
4.31061	
4.3045	
4.2923	
4.2984	
4.28009	
4.27856	
4.29382	
4.2984	
4.31671	
4.32587	
4.33655	
4.34265	
4.3396	
4.33655	
4.31061	
4.30603	
4.29993	
4.29688	
4.3045	
4.31061	
4.31519	
4.32281	
4.32739	
4.31671	
4.30756	
4.30756	
4.31366	
4.31366	
4.32129	
4.32129	
4.31824	
4.32129	
4.31976	
4.32739	
4.32587	
4.31976	
4.32129	
4.32281	
4.31519	
4.31366	
4.30756	
4.31061	
4.31061	
4.30908	
4.31671	
4.32129	
4.31824	
4.31061	
4.31061	
4.31671	
4.31366	
4.30908	
4.3045	
4.30603	
4.30603	
4.30603	
4.31061	
4.31061	
4.31213	
4.31061	
4.31061	
4.31671	
4.31061	
4.31213	
4.31366	
4.31519	
4.31824	
4.31976	
4.31519	
4.31519	
4.31366	
4.31213	
4.30603	
4.30603	
4.29688	
4.3045	
4.30908	
4.31366	
4.31824	
4.30756	
4.31213	
4.32587	
4.32281	
4.32281	
4.31061	
4.3045	
4.3045	
4.30145	
4.30756	
4.29993	
4.2984	
4.28772	
4.28772	
4.29535	
4.31213	
4.31824	
4.32587	
4.33807	
4.33197	
4.33197	
4.30908	
4.29535	
4.2923	
4.29535	
4.2984	
4.31213	
4.31519	
4.33044	
4.34723	
4.3457	
4.33655	
4.33502	
4.32892	
4.33044	
4.33502	
4.32892	
4.31824	
4.31519	
4.32129	
4.32281	
4.32129	
4.32587	
4.32739	
4.32587	
4.31824	
4.31366	
4.31213	
4.31061	
4.31366	
4.31519	
4.31519	
4.31519	
4.31519	
4.31519	
4.31671	
4.31366	
4.30603	
4.31671	
4.31671	
4.31213	
4.31061	
4.30908	
4.31061	
4.32129	
4.31671	
4.31519	
4.31519	
4.31366	
4.31519	
4.31671	
4.31671	
4.31976	
4.31824	
4.31671	
4.32129	
4.31976	
4.31824	
4.31671	
4.31366	
4.31366	
4.31366	
4.32892	
4.31976	
4.31671	
4.31976	
4.32434	
4.32587	
4.32892	
4.33502	
4.33044	
4.31366	
4.31519	
4.30603	
4.29077	
4.27551	
4.28009	
4.29077	
4.31519	
4.32739	
4.33502	
4.34113	
4.33197	
4.33502	
4.32587	
4.30756	
4.2984	
4.29688	
4.29993	
4.31671	
4.32739	
4.3396	
4.34418	
4.33655	
4.33197	
4.33044	
4.32739	
4.31976	
4.32281	
4.31976	
4.31671	
4.31519	
4.31671	
4.31824	
4.32281	
4.33197	
4.3396	
4.3396	
4.33502	
4.33197	
4.32739	
4.32892	
4.33044	
4.32587	
4.32129	
4.31519	
4.31213	
4.30908	
4.30908	
4.30756	
4.31061	
4.31366	
4.31366	
4.31366	
4.31519	
4.31061	
4.30756	
4.31213	
4.3045	
4.31061	
4.31671	
4.32129	
4.31824	
4.33044	
4.33807	
4.3396	
4.33044	
4.32281	
4.32434	
4.32129	
4.32281	
4.32129	
4.31519	
4.30756	
4.30908	
4.31213	
4.31366	
4.32129	
4.32587	
4.33655	
4.3396	
4.33807	
4.32739	
4.34418	
4.35791	
4.36707	
4.36096	
4.35333	
4.34418	
4.33197	
4.31976	
4.31671	
4.31061	
4.29688	
4.28314	
4.27551	
4.28009	
4.2923	
4.30145	
4.31671	
4.31671	
4.31976	
4.31824	
4.32434	
4.32434	
4.31519	
4.31671	
4.31519	
4.32129	
4.33502	
4.33655	
4.3396	
4.33807	
4.32892	
4.32434	
4.32587	
4.32892	
4.31213	
4.2984	
4.29535	
4.29688	
4.30603	
4.31366	
4.32434	
4.33502	
4.34265	
4.3457	
4.33655	
4.32739	
4.31671	
4.31976	
4.33044	
4.32587	
4.32129	
4.31976	
4.32129	
4.32129	
4.32434	
4.32587	
4.32739	
4.32739	
4.33502	
4.33502	
4.32739	
4.32587	
4.33044	
4.32892	
4.32892	
4.32281	
4.31519	
4.30603	
4.3045	
4.31213	
4.31213	
4.31824	
4.31824	
4.32587	
4.33197	
4.33502	
4.33655	
4.33807	
4.33655	
4.34265	
4.3457	
4.34113	
4.33655	
4.32892	
4.32281	
4.32129	
4.30908	
4.31519	
4.31976	
4.32129	
4.31976	
4.32129	
4.32281	
4.32434	
4.32587	
4.32281	
4.31824	
4.32281	
4.32129	
4.32281	
4.31976	
4.31671	
4.32739	
4.33044	
4.3396	
4.34265	
4.3457	
4.34265	
4.34265	
4.34113	
4.32129	
4.3045	
4.28925	
4.29077	
4.29688	
4.32129	
4.33197	
4.33655	
4.35028	
4.34875	
4.34723	
4.3457	
4.33807	
4.32892	
4.32739	
4.33502	
4.33502	
4.33502	
4.33502	
4.33197	
4.33044	
4.32434	
4.32587	
4.31671	
4.31519	
4.31671	
4.31671	
4.31671	
4.31366	
4.31061	
4.31213	
4.31519	
4.31824	
4.31976	
4.32129	
4.31976	
4.32281	
4.32892	
4.33807	
4.33807	
4.33502	
4.33502	
4.33655	
4.33655	
4.32281	
4.31061	
4.3045	
4.30145	
4.30756	
4.32281	
4.32434	
4.33044	
4.33655	
4.34113	
4.34723	
4.35181	
4.3457	
4.33655	
4.34113	
4.35486	
4.35028	
4.35333	
4.3457	
4.34265	
4.3396	
4.3396	
4.3396	
4.34113	
4.33502	
4.33044	
4.32739	
4.32587	
4.32892	
4.32129	
4.32434	
4.32587	
4.33502	
4.33197	
4.33502	
4.3396	
4.33655	
4.33655	
4.33655	
4.33197	
4.32587	
4.33197	
4.33044	
4.33807	
4.33197	
4.32587	
4.33502	
4.3396	
4.33655	
4.33197	
4.33502	
4.33044	
4.33044	
4.33655	
4.33807	
4.32739	
4.31519	
4.30756	
4.30908	
4.31824	
4.31824	
4.32434	
4.35638	
4.35791	
4.34875	
4.3396	
4.33502	
4.3396	
4.33044	
4.33044	
4.34113	
4.34723	
4.34113	
4.33502	
4.33502	
4.33044	
4.32739	
4.32739	
4.32587	
4.31824	
4.31976	
4.33197	
4.34113	
4.34875	
4.34723	
4.34418	
4.34418	
4.3396	
4.33807	
4.33807	
4.34113	
4.3396	
4.3396	
4.34875	
4.3457	
4.33502	
4.32739	
4.32739	
4.32892	
4.33807	
4.34113	
4.34875	
4.34723	
4.33807	
4.33807	
4.34113	
4.33807	
4.33044	
4.33044	
4.33655	
4.34113	
4.3396	
4.3396	
4.34113	
4.34265	
4.33807	
4.33807	
4.33655	
4.33197	
4.33197	
4.33655	
4.3396	
4.33807	
4.33197	
4.33655	
4.33502	
4.33807	
4.34113	
4.33655	
4.32892	
4.31976	
4.32587	
4.33502	
4.34265	
4.33502	
4.30908	
4.29993	
4.31519	
4.32434	
4.33502	
4.3396	
4.34265	
4.3396	
4.34875	
4.35181	
4.3396	
4.31824	
4.3045	
4.30145	
4.31976	
4.32434	
4.32892	
4.33502	
4.35028	
4.34875	
4.34113	
4.33655	
4.32892	
4.33807	
4.3396	
4.34113	
4.3457	
4.3457	
4.35028	
4.35333	
4.34113	
4.34265	
4.34265	
4.33502	
4.34113	
4.34723	
4.35638	
4.35181	
4.34265	
4.33655	
4.3396	
4.34113	
4.34265	
4.3457	
4.34418	
4.33655	
4.3396	
4.34265	
4.3396	
4.33807	
4.33502	
4.33044	
4.33044	
4.33197	
4.33502	
4.34113	
4.3396	
4.33655	
4.33807	
4.33502	
4.32892	
4.32587	
4.32587	
4.32892	
4.33502	
4.3457	
4.34265	
4.33044	
4.3396	
4.34265	
4.34723	
4.34265	
4.34113	
4.33807	
4.34265	
4.34113	
4.33807	
4.33655	
4.33044	
4.33197	
4.33502	
4.3396	
4.34265	
4.34265	
4.34265	
4.34113	
4.33655	
4.34265	
4.34265	
4.34418	
4.34265	
4.33655	
4.33502	
4.33655	
4.33807	
4.33044	
4.33655	
4.33502	
4.33197	
4.33502	
4.34265	
4.3457	
4.34418	
4.34265	
4.35638	
4.36707	
4.36707	
4.35028	
4.34418	
4.32434	
4.31061	
4.30756	
4.30756	
4.30908	
4.31061	
4.31366	
4.30908	
4.31671	
4.31976	
4.31824	
4.33502	
4.34418	
4.34418	
4.35486	
4.36249	
4.36707	
4.36249	
4.35791	
4.34418	
4.34265	
4.35333	
4.35028	
4.35638	
4.35638	
4.35028	
4.34723	
4.34265	
4.33044	
4.33807	
4.34113	
4.33197	
4.33655	
4.34113	
4.34723	
4.35181	
4.34723	
4.35181	
4.35181	
4.34875	
4.34875	
4.34875	
4.34723	
4.34875	
4.35333	
4.34723	
4.3457	
4.34265	
4.33807	
4.33807	
4.34265	
4.33807	
4.34113	
4.34875	
4.34723	
4.34265	
4.33655	
4.34113	
4.34113	
4.34113	
4.34113	
4.34265	
4.33655	
4.33807	
4.3396	
4.33807	
4.34113	
4.34265	
4.34113	
4.34113	
4.34265	
4.34265	
4.34265	
4.34265	
4.34723	
4.3457	
4.34418	
4.35028	
4.35181	
4.35028	
4.3457	
4.3457	
4.34723	
4.34418	
4.34265	
4.3396	
4.33655	
4.33197	
4.33044	
4.32892	
4.32739	
4.32434	
4.32892	
4.33655	
4.3396	
4.34265	
4.3396	
4.33807	
4.33044	
4.33197	
4.34265	
4.33807	
4.3396	
4.34265	
4.3457	
4.34113	
4.3396	
4.35638	
4.37164	
4.37622	
4.37927	
4.37469	
4.35638	
4.35181	
4.35638	
4.35333	
4.34723	
4.33655	
4.32434	
4.32281	
4.32739	
4.33502	
4.33807	
4.34418	
4.34265	
4.34113	
4.34875	
4.35791	
4.36249	
4.36096	
4.36249	
4.35944	
4.36096	
4.35944	
4.35638	
4.35791	
4.35028	
4.35791	
4.35944	
4.35944	
4.35333	
4.35486	
4.35486	
4.35333	
4.35944	
4.36096	
4.35944	
4.35638	
4.35333	
4.35333	
4.35333	
4.35333	
4.34875	
4.34265	
4.3457	
4.3457	
4.3457	
4.34113	
4.33502	
4.33807	
4.33655	
4.3396	
4.33807	
4.33502	
4.33655	
4.34265	
4.34265	
4.35333	
4.35028	
4.3457	
4.3457	
4.3457	
4.34265	
4.35028	
4.35638	
4.35486	
4.35638	
4.35486	
4.35333	
4.35028	
4.35028	
4.35486	
4.35638	
4.35333	
4.35791	
4.35486	
4.35333	
4.36096	
4.36249	
4.35638	
4.35333	
4.35181	
4.35333	
4.35333	
4.35181	
4.3457	
4.3396	
4.3396	
4.33655	
4.3396	
4.34875	
4.3457	
4.34265	
4.35028	
4.35028	
4.34875	
4.35181	
4.34875	
4.34875	
4.35333	
4.36096	
4.35944	
4.35791	
4.36859	
4.37622	
4.37775	
4.37317	
4.37012	
4.35638	
4.35333	
4.35333	
4.34418	
4.33655	
4.32739	
4.32129	
4.32129	
4.32739	
4.34113	
4.3457	
4.35791	
4.37317	
4.37775	
4.3808	
4.37317	
4.36707	
4.36707	
4.36096	
4.36249	
4.37012	
4.36249	
4.35638	
4.35486	
4.35486	
4.35333	
4.35638	
4.35181	
4.35638	
4.35791	
4.35944	
4.35638	
4.35486	
4.35486	
4.35944	
4.36249	
4.35944	
4.35333	
4.34875	
4.35333	
4.35028	
4.35181	
4.36096	
4.36707	
4.36859	
4.37164	
4.37622	
4.37012	
4.36859	
4.35944	
4.35181	
4.34875	
4.35028	
4.34113	
4.33197	
4.33502	
4.32892	
4.33044	
4.3396	
4.35333	
4.35791	
4.36707	
4.36859	
4.36249	
4.35791	
4.36096	
4.35944	
4.35944	
4.37317	
4.37775	
4.36859	
4.36096	
4.35638	
4.35486	
4.35638	
4.35333	
4.35791	
4.35944	
4.36401	
4.37012	
4.36249	
4.37012	
4.36859	
4.36707	
4.36096	
4.37317	
4.38843	
4.37927	
4.37012	
4.36249	
4.35486	
4.35181	
4.35333	
4.35486	
4.34875	
4.34418	
4.3457	
4.35638	
4.35791	
4.36401	
4.35486	
4.35944	
4.36859	
4.35944	
4.35333	
4.35333	
4.35181	
4.35181	
4.35638	
4.35791	
4.35791	
4.35638	
4.35791	
4.36707	
4.35791	
4.35486	
4.34875	
4.34265	
4.3396	
4.34723	
4.35181	
4.35944	
4.36401	
4.36859	
4.36096	
4.35944	
4.35028	
4.34723	
4.34875	
4.36859	
4.36401	
4.36249	
4.35791	
4.35638	
4.35181	
4.35181	
4.35638	
4.36096	
4.36401	
4.36249	
4.36859	
4.36859	
4.36096	
4.36707	
4.37622	
4.37469	
4.37164	
4.37012	
4.37012	
4.37012	
4.36707	
4.36401	
4.36401	
4.35791	
4.34875	
4.35028	
4.3457	
4.34723	
4.35181	
4.35333	
4.36096	
4.35638	
4.35028	
4.34723	
4.35486	
4.35944	
4.35944	
4.34723	
4.34418	
4.34265	
4.3396	
4.33807	
4.34875	
4.36249	
4.37469	
4.37622	
4.37927	
4.37012	
4.36707	
4.36707	
4.36707	
4.36401	
4.35333	
4.35333	
4.35486	
4.35486	
4.36096	
4.37012	
4.37164	
4.36859	
4.36401	
4.37012	
4.36707	
4.36401	
4.35791	
4.35638	
4.35486	
4.35333	
4.35791	
4.35944	
4.35791	
4.35638	
4.35333	
4.35638	
4.35333	
4.35028	
4.36249	
4.3808	
4.3869	
4.38538	
4.37775	
4.37469	
4.36096	
4.35944	
4.35944	
4.35333	
4.34418	
4.33655	
4.33807	
4.3457	
4.35486	
4.35638	
4.35333	
4.37012	
4.36859	
4.36096	
4.36096	
4.36096	
4.36401	
4.36707	
4.37164	
4.37012	
4.35944	
4.35486	
4.35486	
4.35486	
4.35486	
4.36401	
4.36249	
4.36249	
4.36401	
4.36096	
4.36096	
4.36401	
4.35486	
4.35486	
4.35638	
4.36401	
4.37012	
4.36707	
4.36859	
4.36401	
4.36249	
4.34875	
4.3457	
4.34723	
4.35028	
4.35944	
4.36707	
4.37775	
4.37164	
4.36249	
4.36096	
4.35638	
4.35791	
4.36401	
4.36401	
4.36707	
4.36249	
4.35791	
4.36401	
4.36859	
4.36707	
4.36707	
4.37622	
4.36249	
4.35791	
4.36249	
4.36401	
4.36859	
4.35944	
4.35944	
4.35791	
4.35638	
4.35638	
4.36707	
4.36859	
4.36707	
4.36859	
4.35791	
4.36249	
4.36096	
4.36707	
4.37012	
4.36707	
4.36707	
4.37012	
4.36859	
4.37012	
4.36707	
4.36401	
4.35791	
4.35333	
4.36707	
4.36401	
4.36859	
4.36707	
4.36401	
4.36249	
4.35944	
4.35638	
4.37622	
4.3869	
4.3808	
4.37775	
4.37775	
4.37012	
4.36249	
4.36401	
4.36401	
4.35028	
4.33807	
4.33655	
4.33502	
4.3396	
4.35638	
4.35638	
4.36707	
4.37469	
4.37317	
4.36859	
4.36707	
4.36401	
4.36249	
4.36707	
4.36707	
4.35944	
4.35791	
4.36707	
4.36859	
4.36707	
4.37317	
4.37469	
4.37012	
4.36401	
4.36401	
4.36707	
4.36249	
4.36707	
4.36249	
4.36707	
4.36249	
4.36249	
4.35486	
4.3457	
4.34418	
4.3457	
4.34723	
4.35181	
4.35638	
4.35944	
4.36249	
4.35638	
4.35486	
4.35638	
4.35333	
4.35486	
4.37012	
4.37317	
4.37927	
4.37775	
4.37775	
4.38385	
4.38232	
4.38232	
4.38385	
4.37927	
4.37317	
4.36859	
4.37012	
4.36249	
4.36096	
4.36096	
4.35638	
4.35486	
4.36096	
4.35791	
4.37012	
4.36401	
4.36249	
4.36096	
4.37164	
4.37469	
4.37317	
4.37317	
4.37469	
4.37012	
4.36859	
4.37012	
4.37164	
4.37012	
4.36401	
4.35944	
4.35944	
4.35944	
4.36707	
4.36859	
4.36859	
4.36859	
4.37012	
4.37164	
4.37012	
4.37012	
4.37012	
4.37317	
4.37317	
4.36859	
4.36859	
4.36401	
4.36249	
4.36859	
4.37164	
4.39758	
4.40826	
4.40369	
4.39148	
4.37927	
4.37012	
4.35638	
4.35791	
4.34723	
4.33655	
4.33502	
4.33044	
4.34113	
4.35028	
4.35791	
4.35791	
4.35333	
4.35791	
4.36249	
4.37164	
4.37622	
4.37775	
4.37775	
4.3808	
4.38385	
4.3808	
4.37622	
4.37012	
4.36707	
4.36249	
4.36707	
4.37469	
4.37622	
4.37622	
4.37164	
4.36859	
4.35791	
4.3457	
4.34418	
4.3457	
4.35181	
4.35944	
4.36096	
4.35638	
4.35486	
4.35181	
4.3457	
4.35181	
4.34723	
4.35486	
4.36401	
4.36096	
4.37012	
4.37622	
4.37622	
4.37775	
4.3808	
4.38385	
4.38232	
4.37775	
4.37469	
4.37012	
4.38385	
4.39301	
4.38843	
4.38995	
4.3869	
4.38538	
4.39148	
4.38995	
4.38843	
4.38385	
4.37775	
4.37317	
4.36401	
4.35791	
4.36249	
4.36096	
4.36249	
4.37317	
4.37927	
4.38538	
4.37469	
4.37622	
4.37469	
4.37012	
4.37012	
4.36707	
4.36707	
4.36859	
4.36401	
4.35638	
4.37012	
4.37469	
4.37927	
4.37317	
4.37012	
4.36859	
4.36401	
4.37012	
4.36859	
4.36401	
4.3808	
4.39148	
4.40063	
4.38843	
4.38232	
4.38232	
4.37622	
4.3808	
4.37164	
4.35181	
4.3396	
4.33807	
4.3457	
4.3457	
4.3457	
4.34875	
4.36249	
4.37775	
4.37927	
4.37927	
4.37775	
4.37927	
4.3808	
4.37164	
4.36707	
4.36859	
4.36707	
4.37012	
4.36707	
4.36859	
4.36859	
4.36401	
4.36859	
4.36707	
4.36401	
4.36096	
4.36401	
4.37317	
4.37775	
4.37622	
4.38538	
4.39301	
4.38995	
4.38538	
4.3808	
4.37927	
4.38385	
4.3869	
4.38232	
4.38385	
4.3808	
4.37775	
4.37317	
4.38232	
4.38538	
4.38538	
4.37775	
4.37012	
4.36096	
4.35181	
4.35791	
4.36249	
4.37164	
4.37317	
4.37012	
4.36707	
4.36859	
4.37012	
4.37775	
4.37927	
4.37469	
4.37775	
4.37317	
4.37317	
4.3808	
4.38232	
4.38843	
4.38385	
4.38385	
4.38385	
4.37469	
4.37469	
4.36707	
4.37164	
4.37469	
4.39911	
4.41895	
4.41742	
4.41132	
4.40216	
4.40216	
4.38995	
4.38538	
4.37012	
4.35333	
4.35181	
4.35181	
4.35028	
4.35181	
4.35638	
4.35944	
4.37469	
4.39453	
4.3869	
4.37775	
4.37927	
4.37164	
4.37317	
4.37469	
4.37927	
4.38232	
4.37775	
4.37317	
4.36859	
4.36401	
4.36249	
4.36401	
4.36707	
4.37164	
4.37775	
4.38538	
4.38538	
4.38995	
4.39911	
4.38995	
4.37622	
4.37164	
4.37469	
4.37622	
4.37622	
4.37622	
4.3808	
4.37469	
4.37012	
4.37012	
4.37164	
4.38232	
4.38385	
4.38538	
4.39453	
4.39911	
4.38995	
4.38538	
4.37775	
4.37775	
4.3808	
4.37927	
4.37622	
4.36707	
4.37164	
4.36859	
4.37012	
4.37622	
4.3808	
4.38385	
4.3869	
4.38385	
4.38385	
4.37775	
4.37622	
4.37775	
4.37775	
4.38385	
4.38995	
4.39148	
4.38995	
4.39758	
4.39148	
4.38995	
4.38843	
4.3869	
4.38232	
4.38232	
4.37775	
4.37775	
4.37927	
4.3808	
4.37622	
4.37927	
4.38385	
4.37622	
4.37927	
4.37927	
4.38995	
4.41132	
4.41437	
4.41437	
4.41132	
4.40826	
4.39453	
4.38995	
4.38232	
4.37622	
4.36249	
4.35486	
4.35791	
4.36096	
4.37012	
4.37164	
4.37164	
4.38232	
4.38538	
4.38385	
4.3869	
4.3869	
4.37927	
4.37622	
4.37927	
4.37775	
4.37622	
4.37622	
4.3808	
4.3869	
4.39301	
4.39148	
4.39453	
4.38843	
4.38385	
4.39148	
4.3869	
4.3808	
4.37164	
4.36859	
4.36096	
4.35791	
4.35486	
4.35638	
4.36401	
4.37927	
4.39758	
4.38843	
4.38385	
4.38385	
4.38538	
4.38843	
4.38843	
4.3869	
4.38843	
4.38538	
4.37927	
4.37927	
4.37775	
4.37622	
4.37012	
4.3808	
4.39301	
4.38995	
4.38538	
4.3869	
4.37775	
4.3808	
4.38843	
4.3869	
4.38538	
4.38385	
4.38232	
4.37317	
4.37469	
4.3808	
4.38385	
4.38995	
4.40216	
4.40369	
4.40979	
4.41589	
4.42352	
4.43268	
4.42505	
4.42047	
4.41589	
4.40674	
4.40369	
4.39758	
4.38995	
4.37164	
4.35486	
4.35028	
4.35333	
4.36096	
4.37775	
4.37775	
4.38843	
4.39453	
4.39758	
4.39148	
4.38843	
4.38538	
4.38995	
4.39301	
4.3869	
4.38538	
4.37775	
4.38385	
4.37927	
4.37927	
4.38538	
4.39148	
4.38385	
4.38385	
4.3869	
4.38385	
4.3808	
4.37927	
4.38385	
4.38385	
4.38538	
4.38232	
4.37927	
4.38385	
4.38538	
4.39301	
4.39301	
4.3869	
4.38232	
4.37622	
4.37622	
4.37927	
4.37775	
4.38232	
4.38385	
4.38538	
4.38843	
4.39301	
4.38385	
4.38385	
4.3808	
4.3808	
4.38385	
4.3869	
4.38232	
4.38385	
4.3869	
4.38843	
4.39148	
4.39453	
4.39148	
4.39301	
4.3869	
4.37775	
4.37469	
4.37469	
4.37012	
4.37317	
4.37317	
4.37622	
4.38232	
4.38385	
4.38995	
4.39301	
4.38843	
4.39148	
4.38538	
4.39148	
4.38843	
4.39148	
4.38538	
4.38385	
4.3869	
4.38385	
4.38385	
4.38232	
4.38232	
4.38385	
4.39148	
4.39301	
4.39453	
4.38995	
4.38995	
4.39148	
4.39911	
4.40521	
4.40674	
4.40216	
4.40063	
4.39148	
4.39758	
4.39453	
4.39301	
4.39453	
4.39148	
4.38995	
4.39301	
4.39148	
4.38995	
4.38843	
4.39758	
4.41742	
4.422	
4.42352	
4.41284	
4.40979	
4.40063	
4.40521	
4.40063	
4.40216	
4.39148	
4.3869	
4.37775	
4.37775	
4.37164	
4.36859	
4.37317	
4.38538	
4.38995	
4.38385	
4.38538	
4.38385	
4.3869	
4.38995	
4.38995	
4.38995	
4.40063	
4.40369	
4.40063	
4.39758	
4.39301	
4.39453	
4.39911	
4.40826	
4.41132	
4.40979	
4.39758	
4.39301	
4.39148	
4.38538	
4.39301	
4.39301	
4.39148	
4.38385	
4.37164	
4.36096	
4.36249	
4.37012	
4.38232	
4.37927	
4.37775	
4.37775	
4.3808	
4.38385	
4.38232	
4.38843	
4.38995	
4.39453	
4.39758	
4.40063	
4.40521	
4.40369	
4.40826	
4.41132	
4.41284	
4.40979	
4.40674	
4.40826	
4.40521	
4.40369	
4.40369	
4.40063	
4.40063	
4.39758	
4.39301	
4.39911	
4.40063	
4.40369	
4.40216	
4.40216	
4.40063	
4.39148	
4.3869	
4.38538	
4.38538	
4.3808	
4.38538	
4.38995	
4.39301	
4.39758	
4.39301	
4.39148	
4.39148	
4.41132	
4.42047	
4.4281	
4.4281	
4.42963	
4.422	
4.40979	
4.40979	
4.40674	
4.40216	
4.38843	
4.38385	
4.3808	
4.37927	
4.37775	
4.38538	
4.39148	
4.39758	
4.38995	
4.37927	
4.37164	
4.37927	
4.38385	
4.38538	
4.39453	
4.40216	
4.40216	
4.40369	
4.40826	
4.40979	
4.40674	
4.39911	
4.39453	
4.39301	
4.39148	
4.40063	
4.40521	
4.39301	
4.38995	
4.38843	
4.39758	
4.40063	
4.39301	
4.39758	
4.39758	
4.40216	
4.39758	
4.39453	
4.38995	
4.3869	
4.38843	
4.38538	
4.38385	
4.3869	
4.38385	
4.38995	
4.39758	
4.40521	
4.40979	
4.41132	
4.41132	
4.40369	
4.40674	
4.40216	
4.39301	
4.38995	
4.39301	
4.39148	
4.38232	
4.37622	
4.37775	
4.37927	
4.38385	
4.38538	
4.39148	
4.39301	
4.39453	
4.39453	
4.39911	
4.40369	
4.40216	
4.39453	
4.40674	
4.41742	
4.41895	
4.41284	
4.41589	
4.40826	
4.40674	
4.39758	
4.39453	
4.40369	
4.42963	
4.44641	
4.44946	
4.4342	
4.42505	
4.41895	
4.40826	
4.39301	
4.38995	
4.3808	
4.37622	
4.37164	
4.37164	
4.37469	
4.37622	
4.3808	
4.39301	
4.40369	
4.40979	
4.40674	
4.40979	
4.40674	
4.40979	
4.40063	
4.39453	
4.39453	
4.39301	
4.39148	
4.39453	
4.39148	
4.38843	
4.38843	
4.3869	
4.38538	
4.39148	
4.39911	
4.39758	
4.40216	
4.40369	
4.39911	
4.39453	
4.39148	
4.39453	
4.39911	
4.40216	
4.40521	
4.39911	
4.39301	
4.38843	
4.38995	
4.39148	
4.39911	
4.40521	
4.40826	
4.40979	
4.41437	
4.40063	
4.39453	
4.39301	
4.38843	
4.39148	
4.40369	
4.40674	
4.40521	
4.40826	
4.39911	
4.39453	
4.39301	
4.38538	
4.38538	
4.39301	
4.40216	
4.40369	
4.39301	
4.39301	
4.39453	
4.39911	
4.40063	
4.39758	
4.39301	
4.39758	
4.40369	
4.40826	
4.40521	
4.40063	
4.40216	
4.39911	
4.40521	
4.40826	
4.42352	
4.44336	
4.43878	
4.43878	
4.4342	
4.43268	
4.41437	
4.39911	
4.38538	
4.37012	
4.36096	
4.35791	
4.36707	
4.37012	
4.38538	
4.39453	
4.40063	
4.41742	
4.41132	
4.40063	
4.40063	
4.39301	
4.39453	
4.3869	
4.38538	
4.3869	
4.39453	
4.39758	
4.39453	
4.40063	
4.40521	
4.40216	
4.39911	
4.40369	
4.39911	
4.39911	
4.39453	
4.40216	
4.39453	
4.39301	
4.3869	
4.3869	
4.39148	
4.40063	
4.39758	
4.38995	
4.38538	
4.37775	
4.38232	
4.3869	
4.38385	
4.38385	
4.38385	
4.38385	
4.3869	
4.39758	
4.39301	
4.40369	
4.41132	
4.41132	
4.40979	
4.40216	
4.39911	
4.39301	
4.38995	
4.39148	
4.39758	
4.40063	
4.39911	
4.39911	
4.40216	
4.40063	
4.39148	
4.38843	
4.40216	
4.41132	
4.40826	
4.40521	
4.40521	
4.40063	
4.39758	
4.39453	
4.40216	
4.40826	
4.41132	
4.40826	
4.40216	
4.40521	
4.41132	
4.41589	
4.41589	
4.41284	
4.41437	
4.40826	
4.40369	
4.39148	
4.39301	
4.38232	
4.3808	
4.38385	
4.38538	
4.3869	
4.39301	
4.39758	
4.39911	
4.40369	
4.40063	
4.40369	
4.40369	
4.40826	
4.40826	
4.40521	
4.40521	
4.40369	
4.40674	
4.40674	
4.40216	
4.40063	
4.39911	
4.39758	
4.39758	
4.39911	
4.39758	
4.39911	
4.39301	
4.39453	
4.41132	
4.43115	
4.43268	
4.42963	
4.41742	
4.41132	
4.40216	
4.39301	
4.38843	
4.37775	
4.36096	
4.35486	
4.34875	
4.35486	
4.37469	
4.38538	
4.39453	
4.41437	
4.40979	
4.40521	
4.40521	
4.39758	
4.39301	
4.39148	
4.38843	
4.39301	
4.40216	
4.40674	
4.40979	
4.41132	
4.41437	
4.41437	
4.41132	
4.41284	
4.39911	
4.38995	
4.38995	
4.39301	
4.39758	
4.40521	
4.41132	
4.41132	
4.40979	
4.40369	
4.40521	
4.40369	
4.40674	
4.40826	
4.41589	
4.41437	
4.41132	
4.40674	
4.39911	
4.39453	
4.39453	
4.39911	
4.40521	
4.40521	
4.40369	
4.40826	
4.40826	
4.40521	
4.40521	
4.40369	
4.39758	
4.39453	
4.39911	
4.40063	
4.40826	
4.41132	
4.41284	
4.40674	
4.40674	
4.40979	
4.40369	
4.40216	
4.40369	
4.39911	
4.39758	
4.39148	
4.38843	
4.38843	
4.38232	
4.38538	
4.38843	
4.3869	
4.38995	
4.38385	
4.3869	
4.39301	
4.40063	
4.40216	
4.40826	
4.40521	
4.40216	
4.40521	
4.40216	
4.40521	
4.40216	
4.40674	
4.42047	
4.42963	
4.42505	
4.422	
4.40674	
4.40521	
4.39911	
4.40674	
4.39911	
4.3869	
4.36707	
4.36096	
4.37012	
4.37775	
4.39148	
4.39453	
4.40674	
4.40521	
4.40369	
4.41132	
4.40826	
4.40979	
4.41132	
4.41742	
4.41895	
4.41742	
4.41589	
4.41742	
4.40369	
4.39911	
4.40521	
4.40826	
4.40063	
4.39911	
4.39453	
4.39758	
4.39453	
4.39453	
4.40216	
4.40521	
4.40979	
4.41284	
4.40674	
4.40826	
4.40826	
4.39301	
4.39148	
4.3869	
4.3869	
4.39758	
4.40369	
4.40369	
4.40674	
4.40674	
4.40216	
4.40216	
4.39758	
4.39758	
4.39148	
4.39453	
4.39911	
4.39453	
4.39453	
4.40369	
4.40674	
4.40063	
4.40216	
4.40063	
4.41132	
4.40674	
4.40369	
4.40216	
4.40826	
4.42047	
4.41895	
4.41437	
4.41895	
4.41589	
4.40979	
4.40674	
4.40216	
4.40216	
4.40979	
4.40369	
4.39453	
4.3869	
4.38538	
4.39758	
4.41895	
4.42352	
4.43268	
4.42352	
4.42047	
4.41132	
4.40674	
4.39453	
4.38995	
4.37927	
4.38232	
4.3808	
4.37469	
4.38385	
4.39453	
4.40369	
4.40521	
4.40674	
4.40674	
4.40216	
4.40063	
4.39758	
4.39453	
4.39453	
4.39758	
4.40521	
4.40979	
4.42047	
4.422	
4.41437	
4.40826	
4.40216	
4.40674	
4.40521	
4.41742	
4.41742	
4.41284	
4.41132	
4.41437	
4.41437	
4.40521	
4.40216	
4.39911	
4.38538	
4.38538	
4.38843	
4.39301	
4.38538	
4.38538	
4.38995	
4.39758	
4.40369	
4.40979	
4.40826	
4.40826	
4.40369	
4.40521	
4.40063	
4.40521	
4.40979	
4.40826	
4.41895	
4.42963	
4.422	
4.41589	
4.41132	
4.40216	
4.40826	
4.40979	
4.41284	
4.41284	
4.41284	
4.41284	
4.41437	
4.41437	
4.41589	
4.41895	
4.41895	
4.41895	
4.41742	
4.41437	
4.41132	
4.40826	
4.40521	
4.40369	
4.40063	
4.39453	
4.40063	
4.40063	
4.40063	
4.40369	
4.40826	
4.40674	
4.40674	
4.40521	
4.40369	
4.39453	
4.39758	
4.39453	
4.39301	
4.39758	
4.39758	
4.40063	
4.39911	
4.40216	
4.40674	
4.39758	
4.39453	
4.39758	
4.40979	
4.41895	
4.4281	
4.42505	
4.4281	
4.44031	
4.44489	
4.43573	
4.4342	
4.4281	
4.41895	
4.41742	
4.41589	
4.40369	
4.38995	
4.37927	
4.37622	
4.3869	
4.39453	
4.39453	
4.39758	
4.41589	
4.41589	
4.40521	
4.40063	
4.40063	
4.40826	
4.40979	
4.40826	
4.41284	
4.422	
4.41895	
4.41589	
4.40826	
4.40063	
4.39911	
4.40826	
4.40674	
4.40521	
4.39911	
4.39911	
4.40521	
4.40979	
4.40674	
4.41132	
4.41437	
4.41589	
4.41895	
4.41437	
4.42047	
4.41284	
4.40521	
4.40979	
4.41895	
4.42047	
4.41589	
4.41742	
4.41284	
4.41589	
4.41284	
4.41742	
4.41284	
4.41437	
4.41589	
4.41284	
4.41132	
4.41132	
4.41589	
4.41132	
4.40979	
4.40674	
4.40521	
4.39758	
4.39911	
4.40063	
4.40369	
4.40063	
4.40216	
4.39911	
4.39911	
4.40216	
4.40216	
4.41284	
4.422	
4.41437	
4.40826	
4.40674	
4.40979	
4.40826	
4.40979	
4.40674	
4.41284	
4.41895	
4.4281	
4.44794	
4.46472	
4.46472	
4.45404	
4.44183	
4.4342	
4.41895	
4.40979	
4.39911	
4.38843	
4.38385	
4.38843	
4.38995	
4.39453	
4.40521	
4.40826	
4.41589	
4.422	
4.41589	
4.41132	
4.41132	
4.40826	
4.41132	
4.40521	
4.40216	
4.40674	
4.41589	
4.42047	
4.40674	
4.39911	
4.40063	
4.40521	
4.41132	
4.41895	
4.42505	
4.43573	
4.43726	
4.42963	
4.43268	
4.42505	
4.41742	
4.40826	
4.41437	
4.41895	
4.41437	
4.41742	
4.41284	
4.41742	
4.41742	
4.42352	
4.42352	
4.42047	
4.41895	
4.422	
4.422	
4.422	
4.422	
4.41589	
4.41895	
4.41742	
4.41742	
4.41742	
4.41284	
4.40979	
4.41284	
4.41589	
4.41589	
4.42047	
4.41895	
4.42047	
4.41895	
4.42505	
4.42505	
4.42963	
4.43573	
4.42505	
4.4281	
4.42963	
4.42352	
4.41895	
4.41742	
4.41895	
4.42047	
4.41895	
4.422	
4.4281	
4.43573	
4.43726	
4.43573	
4.422	
4.422	
4.42963	
4.43115	
4.422	
4.44794	
4.46014	
4.45709	
4.44794	
4.44489	
4.44336	
4.4342	
4.422	
4.41742	
4.40521	
4.38232	
4.37775	
4.37927	
4.39758	
4.41284	
4.41589	
4.422	
4.44641	
4.4342	
4.42047	
4.42505	
4.43115	
4.4342	
4.42505	
4.42352	
4.42352	
4.41895	
4.41437	
4.40826	
4.39911	
4.39758	
4.39758	
4.40369	
4.41132	
4.41742	
4.42352	
4.42963	
4.4342	
4.4281	
4.42505	
4.42352	
4.42047	
4.42352	
4.43726	
4.43878	
4.42505	
4.42047	
4.41895	
4.41742	
4.41742	
4.41589	
4.41895	
4.41589	
4.41437	
4.41437	
4.41589	
4.41589	
4.41589	
4.42352	
4.4281	
4.42352	
4.42047	
4.41895	
4.41742	
4.41589	
4.422	
4.42963	
4.43573	
4.43268	
4.42963	
4.4342	
4.4342	
4.43268	
4.43726	
4.44031	
4.44031	
4.43573	
4.4281	
4.41742	
4.41895	
4.41895	
4.42352	
4.42047	
4.41284	
4.40521	
4.40826	
4.42505	
4.45099	
4.45557	
4.45709	
4.45557	
4.46014	
4.44183	
4.43726	
4.4281	
4.41437	
4.40063	
4.40521	
4.41284	
4.41437	
4.41284	
4.41895	
4.4281	
4.43268	
4.422	
4.42047	
4.41437	
4.41437	
4.42047	
4.42047	
4.41895	
4.41742	
4.41589	
4.42047	
4.422	
4.422	
4.41895	
4.41437	
4.41895	
4.41589	
4.41742	
4.422	
4.42047	
4.43115	
4.43115	
4.42352	
4.422	
4.42352	
4.42352	
4.42352	
4.41895	
4.41742	
4.40674	
4.40674	
4.40216	
4.40674	
4.40674	
4.40979	
4.43115	
4.44183	
4.44183	
4.44489	
4.43726	
4.43573	
4.43115	
4.42505	
4.42505	
4.42352	
4.42352	
4.42352	
4.42963	
4.43726	
4.43115	
4.43115	
4.42505	
4.43268	
4.43878	
4.44641	
4.44183	
4.44031	
4.43726	
4.44183	
4.43115	
4.42352	
4.42963	
4.42505	
4.42963	
4.43573	
4.44183	
4.44336	
4.44031	
4.43573	
4.4342	
4.43115	
4.42047	
4.41895	
4.422	
4.41589	
4.41437	
4.41742	
4.42505	
4.42963	
4.422	
4.41589	
4.41742	
4.4281	
4.41895	
4.41742	
4.41895	
4.41742	
4.4342	
4.44946	
4.45709	
4.45557	
4.45557	
4.45404	
4.44183	
4.43726	
4.43115	
4.41742	
4.40521	
4.39453	
4.39148	
4.39301	
4.40216	
4.40674	
4.41742	
4.4342	
4.44031	
4.43726	
4.43268	
4.44031	
4.43115	
4.43115	
4.4281	
4.42505	
4.43268	
4.4281	
4.43115	
4.42963	
4.4342	
4.43115	
4.43726	
4.44031	
4.44183	
4.43878	
4.43573	
4.43268	
4.42505	
4.43115	
4.4281	
4.43573	
4.43878	
4.42505	
4.41895	
4.40826	
4.40979	
4.41284	
4.41132	
4.41895	
4.4281	
4.43115	
4.43268	
4.44031	
4.44489	
4.43878	
4.43115	
4.43268	
4.43726	
4.43878	
4.44336	
4.44031	
4.42963	
4.4342	
4.43573	
4.43573	
4.43726	
4.43573	
4.43115	
4.43878	
4.43726	
4.43878	
4.44183	
4.44794	
4.45099	
4.44794	
4.44183	
4.43878	
4.43726	
4.42963	
4.43573	
4.4342	
4.4342	
4.4342	
4.4342	
4.42963	
4.43115	
4.4342	
4.43268	
4.43268	
4.43726	
4.44183	
4.44031	
4.43573	
4.44183	
4.44641	
4.43878	
4.44183	
4.44641	
4.44641	
4.44946	
4.44946	
4.47235	
4.48151	
4.48151	
4.4693	
4.45709	
4.45099	
4.44183	
4.4281	
4.40674	
4.38843	
4.38538	
4.39453	
4.40216	
4.40674	
4.41132	
4.42352	
4.43878	
4.45099	
4.44794	
4.44336	
4.43878	
4.43268	
4.43573	
4.43726	
4.43878	
4.43268	
4.43115	
4.43115	
4.42963	
4.422	
4.42047	
4.41895	
4.41589	
4.42352	
4.43878	
4.44336	
4.43878	
4.43726	
4.44183	
4.44946	
4.44336	
4.43726	
4.43268	
4.43573	
4.43573	
4.43573	
4.43878	
4.43726	
4.44031	
4.43726	
4.43726	
4.43878	
4.43878	
4.45404	
4.45099	
4.45251	
4.45709	
4.46014	
4.45404	
4.44946	
4.44336	
4.44031	
4.4342	
4.42505	
4.4281	
4.42963	
4.43268	
4.43268	
4.4342	
4.44183	
4.43878	
4.4342	
4.44031	
4.43878	
4.4342	
4.4342	
4.43878	
4.43726	
4.44031	
4.44183	
4.44336	
4.44031	
4.44031	
4.43878	
4.43878	
4.44031	
4.44641	
4.44489	
4.43726	
4.4342	
4.4342	
4.43573	
4.44183	
4.44489	
4.43573	
4.43573	
4.4342	
4.43115	
4.43573	
4.43878	
4.43573	
4.43726	
4.44031	
4.43726	
4.4342	
4.43573	
4.44641	
4.45099	
4.45404	
4.47998	
4.49829	
4.50287	
4.49829	
4.49219	
4.47388	
4.45251	
4.44031	
4.42352	
4.41284	
4.40674	
4.40063	
4.40369	
4.40521	
4.41437	
4.41437	
4.42505	
4.44641	
4.44183	
4.4342	
4.43115	
4.42963	
4.43268	
4.43268	
4.43115	
4.43726	
4.44183	
4.44031	
4.44336	
4.44183	
4.43726	
4.43268	
4.43726	
4.43878	
4.44794	
4.44794	
4.45557	
4.46167	
4.45251	
4.45404	
4.45099	
4.45251	
4.44946	
4.46014	
4.46167	
4.46014	
4.45557	
4.45099	
4.44641	
4.44031	
4.4342	
4.43115	
4.43115	
4.4342	
4.43573	
4.44183	
4.44183	
4.44183	
4.44183	
4.44336	
4.44031	
4.44031	
4.42963	
4.41895	
4.42047	
4.422	
4.42352	
4.42963	
4.44336	
4.45099	
4.44946	
4.44641	
4.44946	
4.45404	
4.44946	
4.44489	
4.46014	
4.46167	
4.46167	
4.46014	
4.45557	
4.44946	
4.44794	
4.44336	
4.44794	
4.44489	
4.44641	
4.44489	
4.43878	
4.43878	
4.43878	
4.44183	
4.44183	
4.44336	
4.44183	
4.44946	
4.44946	
4.44794	
4.44489	
4.44641	
4.44641	
4.44946	
4.44489	
4.44336	
4.44031	
4.44183	
4.43878	
4.43573	
4.43726	
4.43115	
4.43726	
4.43573	
4.44031	
4.44336	
4.44489	
4.45251	
4.44946	
4.44946	
4.44336	
4.46777	
4.47388	
4.47845	
4.4754	
4.47388	
4.46167	
4.44794	
4.44183	
4.43573	
4.42505	
4.422	
4.422	
4.43115	
4.4342	
4.43726	
4.43573	
4.43878	
4.45099	
4.44489	
4.44336	
4.44336	
4.44794	
4.44489	
4.44336	
4.44946	
4.44641	
4.45099	
4.44641	
4.44641	
4.44641	
4.44183	
4.43878	
4.44031	
4.43268	
4.42963	
4.42505	
4.42047	
4.40979	
4.41284	
4.41895	
4.43115	
4.44336	
4.44031	
4.44641	
4.44489	
4.44794	
4.44641	
4.44641	
4.46472	
4.46472	
4.45557	
4.44641	
4.45099	
4.45557	
4.46014	
4.45709	
4.46014	
4.46472	
4.46014	
4.45557	
4.46014	
4.46014	
4.46625	
4.4632	
4.46014	
4.45404	
4.44794	
4.45251	
4.45404	
4.4632	
4.4632	
4.4632	
4.4632	
4.45404	
4.45251	
4.45099	
4.44641	
4.44794	
4.44794	
4.44336	
4.44031	
4.44183	
4.44641	
4.45557	
4.45557	
4.45557	
4.45099	
4.44946	
4.44183	
4.44641	
4.44641	
4.45251	
4.44641	
4.44641	
4.44641	
4.44794	
4.46167	
4.45709	
4.45557	
4.45709	
4.45404	
4.4754	
4.48608	
4.48608	
4.48303	
4.4754	
4.47235	
4.46625	
4.45709	
4.45099	
4.44031	
4.43115	
4.42505	
4.42505	
4.43115	
4.43878	
4.44183	
4.44946	
4.45709	
4.44946	
4.44641	
4.44489	
4.43726	
4.43878	
4.44336	
4.43878	
4.43726	
4.4342	
4.43878	
4.4342	
4.43573	
4.44489	
4.45099	
4.45404	
4.46014	
4.46777	
4.46777	
4.4632	
4.45709	
4.46014	
4.44946	
4.44031	
4.43726	
4.44183	
4.44183	
4.45099	
4.45709	
4.45557	
4.45709	
4.45404	
4.46625	
4.47388	
4.4693	
4.45709	
4.45709	
4.45557	
4.4632	
4.46472	
4.46625	
4.47083	
4.46472	
4.46777	
4.46014	
4.45557	
4.45557	
4.4632	
4.46472	
4.46625	
4.46472	
4.46625	
4.4693	
4.46625	
4.46472	
4.4632	
4.4632	
4.45557	
4.46167	
4.45557	
4.45709	
4.46014	
4.4632	
4.46014	
4.45709	
4.45404	
4.45557	
4.45709	
4.45709	
4.45557	
4.45557	
4.45709	
4.46625	
4.4632	
4.45709	
4.46472	
4.46777	
4.48456	
4.49982	
4.49982	
4.49066	
4.47998	
4.46777	
4.46472	
4.46014	
4.44641	
4.43268	
4.41589	
4.41437	
4.41742	
4.42047	
4.42047	
4.42963	
4.43726	
4.44946	
4.44794	
4.43726	
4.4342	
4.42505	
4.43268	
4.44489	
4.44794	
4.44489	
4.44031	
4.44946	
4.46625	
4.47693	
4.47998	
4.47083	
4.46777	
4.46167	
4.46472	
4.4693	
4.46167	
4.44794	
4.44183	
4.45099	
4.45404	
4.44794	
4.45404	
4.47845	
4.4754	
4.47693	
4.48151	
4.48151	
4.4693	
4.46777	
4.46625	
4.46625	
4.4632	
4.46625	
4.4693	
4.47998	
4.47845	
4.47235	
4.47083	
4.47235	
4.46777	
4.46014	
4.45709	
4.45404	
4.45251	
4.45404	
4.45404	
4.46014	
4.46167	
4.46167	
4.46625	
4.46777	
4.46625	
4.46777	
4.46625	
4.46625	
4.46167	
4.46167	
4.46014	
4.46014	
4.45251	
4.44946	
4.45251	
4.45251	
4.45099	
4.44946	
4.44794	
4.44489	
4.45557	
4.46625	
4.4693	
4.46472	
4.46472	
4.4693	
4.4754	
4.47235	
4.47083	
4.4693	
4.46777	
4.46472	
4.4632	
4.45557	
4.45404	
4.45099	
4.44946	
4.45404	
4.47693	
4.48761	
4.49524	
4.49066	
4.48456	
4.47845	
4.46472	
4.46014	
4.45099	
4.43878	
4.43115	
4.42963	
4.42963	
4.43726	
4.44183	
4.44489	
4.46014	
4.46777	
4.46625	
4.46472	
4.45557	
4.45251	
4.45404	
4.45251	
4.45709	
4.45709	
4.45709	
4.45099	
4.44946	
4.45251	
4.44946	
4.44336	
4.44336	
4.44946	
4.46014	
4.47083	
4.47083	
4.46777	
4.46777	
4.46625	
4.46625	
4.46014	
4.46472	
4.47083	
4.47235	
4.47235	
4.46625	
4.46777	
4.46472	
4.47083	
4.46625	
4.47235	
4.46625	
4.4693	
4.4632	
4.46167	
4.46014	
4.46014	
4.46167	
4.45404	
4.44794	
4.44336	
4.44794	
4.4632	
4.4754	
4.48456	
4.47388	
4.4693	
4.46472	
4.46625	
4.47083	
4.4693	
4.46472	
4.46472	
4.45709	
4.46014	
4.45709	
4.46625	
4.46625	
4.4632	
4.4632	
4.46167	
4.4693	
4.46625	
4.46777	
4.46472	
4.46472	
4.46625	
4.47083	
4.47083	
4.47388	
4.46625	
4.47083	
4.46777	
4.46625	
4.46625	
4.46625	
4.46472	
4.4632	
4.46472	
4.46777	
4.46472	
4.4632	
4.46167	
4.46014	
4.46625	
4.4693	
4.47388	
4.4754	
4.47845	
4.4754	
4.47388	
4.47083	
4.46472	
4.46167	
4.46014	
4.46014	
4.46167	
4.45557	
4.45404	
4.46625	
4.4693	
4.47388	
4.47083	
4.46625	
4.46167	
4.46014	
4.46472	
4.46625	
4.46777	
4.46625	
4.4754	
4.48608	
4.48608	
4.48761	
4.47693	
4.48151	
4.47388	
4.46625	
4.44946	
4.44031	
4.42352	
4.42047	
4.43726	
4.45099	
4.4632	
4.4693	
4.47235	
4.47083	
4.47083	
4.45557	
4.45404	
4.45099	
4.45099	
4.45709	
4.46625	
4.47083	
4.47845	
4.47845	
4.4754	
4.46777	
4.46472	
4.46014	
4.45709	
4.46167	
4.4693	
4.47083	
4.4693	
4.4754	
4.47845	
4.48303	
4.48456	
4.47998	
4.47998	
4.47388	
4.47388	
4.47388	
4.4693	
4.46472	
4.4632	
4.4632	
4.46777	
4.47235	
4.47388	
4.47235	
4.47083	
4.47083	
4.47083	
4.47235	
4.47388	
4.47388	
4.47083	
4.47235	
4.47235	
4.47083	
4.47388	
4.47388	
4.46777	
4.46777	
4.4693	
4.4693	
4.4754	
4.47083	
4.47235	
4.47388	
4.46625	
4.46777	
4.47235	
4.47235	
4.47388	
4.4754	
4.47235	
4.47235	
4.47083	
4.47083	
4.46472	
4.4693	
4.46472	
4.46167	
4.46167	
4.46472	
4.46777	
4.46777	
4.47083	
4.46777	
4.47083	
4.48151	
4.47998	
4.48151	
4.48303	
4.48151	
4.47693	
4.4693	
4.46625	
4.46625	
4.4632	
4.45251	
4.44641	
4.47083	
4.48456	
4.48608	
4.49066	
4.49677	
4.48608	
4.47388	
4.46472	
4.46167	
4.44641	
4.42352	
4.41437	
4.41895	
4.43573	
4.44946	
4.46167	
4.48456	
4.50745	
4.49677	
4.49371	
4.48761	
4.48303	
4.47998	
4.47693	
4.4754	
4.47083	
4.47235	
4.4754	
4.4754	
4.47083	
4.4632	
4.4632	
4.4632	
4.47388	
4.47388	
4.47083	
4.4693	
4.45557	
4.44489	
4.44641	
4.44641	
4.44946	
4.45251	
4.4632	
4.46777	
4.47388	
4.47235	
4.47235	
4.4693	
4.46777	
4.46167	
4.46167	
4.46625	
4.46625	
4.47693	
4.4754	
4.47083	
4.47388	
4.47083	
4.46777	
4.46167	
4.46777	
4.46777	
4.47388	
4.47388	
4.47693	
4.48456	
4.48303	
4.48151	
4.47693	
4.4754	
4.47083	
4.47083	
4.4693	
4.47083	
4.46472	
4.46014	
4.46167	
4.46472	
4.4632	
4.45709	
4.45557	
4.46625	
4.46472	
4.46167	
4.46014	
4.4632	
4.46167	
4.46777	
4.47083	
4.47083	
4.46777	
4.47235	
4.46777	
4.4632	
4.4754	
4.48151	
4.48303	
4.48151	
4.47693	
4.47083	
4.47388	
4.47388	
4.4754	
4.48456	
4.5166	
4.52728	
4.52881	
4.52271	
4.50897	
4.49677	
4.48761	
4.47845	
4.46472	
4.44031	
4.43115	
4.4281	
4.42047	
4.43573	
4.44489	
4.45099	
4.45557	
4.4754	
4.4754	
4.48151	
4.48151	
4.48303	
4.47998	
4.48456	
4.47388	
4.47693	
4.47693	
4.47235	
4.47388	
4.4693	
4.47083	
4.4693	
4.46625	
4.46777	
4.46777	
4.46625	
4.47083	
4.46777	
4.47083	
4.47235	
4.47083	
4.47235	
4.47083	
4.4693	
4.47083	
4.47388	
4.46777	
4.46014	
4.45557	
4.45709	
4.4632	
4.46777	
4.47235	
4.47388	
4.4754	
4.47845	
4.47998	
4.47693	
4.47235	
4.46014	
4.46777	
4.47235	
4.47235	
4.47235	
4.47388	
4.47388	
4.47235	
4.4693	
4.46472	
4.46167	
4.45709	
4.45099	
4.44794	
4.45557	
4.46014	
4.46777	
4.4754	
4.47845	
4.48761	
4.49371	
4.49524	
4.49219	
4.49219	
4.48761	
4.48608	
4.47845	
4.47693	
4.47235	
4.47845	
4.48608	
4.49677	
4.49219	
4.48456	
4.48151	
4.48151	
4.47693	
4.4754	
4.47235	
4.47083	
4.47388	
4.47388	
4.47693	
4.4693	
4.4693	
4.47845	
4.47998	
4.48151	
4.48303	
4.47845	
4.47693	
4.4754	
4.47083	
4.47083	
4.47083	
4.47388	
4.47845	
4.47998	
4.48456	
4.48761	
4.48303	
4.47693	
4.4754	
4.47083	
4.46625	
4.4632	
4.46625	
4.4754	
4.47845	
4.47998	
4.47998	
4.47845	
4.47693	
4.47693	
4.47388	
4.4754	
4.4754	
4.47845	
4.47388	
4.4754	
4.4754	
4.4754	
4.47845	
4.47083	
4.47235	
4.4754	
4.47998	
4.47693	
4.47388	
4.47693	
4.4754	
4.47998	
4.47693	
4.4754	
4.47235	
4.47083	
4.46472	
4.46167	
4.46472	
4.46777	
4.46777	
4.47235	
4.47083	
4.46625	
4.47083	
4.46625	
4.4693	
4.46625	
4.46777	
4.46777	
4.46777	
4.46777	
4.4632	
4.4632	
4.46625	
4.46777	
4.47235	
4.47845	
4.48151	
4.47845	
4.47998	
4.47845	
4.4754	
4.4754	
4.4754	
4.4754	
4.47083	
4.47235	
4.47693	
4.47845	
4.47693	
4.47693	
4.47235	
4.47693	
4.4754	
4.47388	
4.47235	
4.4693	
4.4693	
4.46777	
4.4693	
4.4754	
4.4693	
4.4632	
4.46472	
4.46777	
4.46777	
4.4693	
4.47083	
4.47083	
4.4693	
4.46625	
4.46777	
4.47083	
4.47083	
4.4693	
4.47235	
4.47388	
4.4754	
4.4754	
4.47998	
4.47693	
4.47388	
4.47845	
4.47845	
4.47998	
4.4754	
4.47083	
4.46625	
4.47083	
4.47693	
4.47845	
4.4693	
4.46777	
4.45557	
4.45557	
4.45251	
4.45709	
4.45709	
4.4632	
4.46167	
4.47235	
4.46625	
4.46167	
4.46472	
4.46777	
4.47235	
4.47388	
4.47083	
4.45709	
4.46472	
4.46777	
4.47083	
4.47388	
4.47998	
4.47693	
4.47388	
4.47693	
4.47998	
4.48303	
4.47845	
4.47693	
4.48151	
4.48608	
4.48608	
4.48303	
4.4754	
4.4632	
4.46014	
4.45709	
4.45099	
4.44794	
4.44489	
4.44183	
4.44336	
4.44489	
4.44336	
4.45099	
4.4632	
4.47388	
4.47998	
4.4754	
4.47083	
4.47235	
4.47998	
4.48303	
4.48456	
4.47388	
4.46472	
4.46777	
4.47998	
4.47693	
4.4754	
4.4693	
4.47083	
4.47083	
4.4754	
4.4754	
4.47693	
4.4693	
4.47083	
4.47388	
4.47845	
4.47235	
4.47693	
4.4754	
4.47083	
4.47235	
4.4754	
4.4754	
4.47235	
4.47388	
4.47235	
4.47083	
4.4754	
4.47388	
4.47845	
4.47388	
4.47388	
4.47083	
4.46625	
4.4632	
4.46777	
4.46777	
4.47235	
4.47388	
4.48456	
4.49982	
4.49982	
4.49982	
4.49829	
4.49371	
4.48456	
4.4754	
4.46472	
4.46625	
4.46014	
4.44794	
4.43878	
4.4281	
4.43878	
4.44031	
4.43878	
4.44641	
4.46472	
4.46167	
4.47235	
4.48151	
4.4693	
4.46777	
4.46625	
4.4693	
4.46625	
4.46472	
4.47083	
4.47388	
4.4693	
4.47235	
4.47235	
4.47083	
4.47388	
4.47388	
4.4693	
4.46014	
4.45557	
4.44336	
4.43726	
4.43573	
4.43573	
4.43878	
4.44183	
4.44336	
4.46625	
4.47693	
4.48303	
4.48608	
4.49371	
4.49219	
4.48608	
4.48303	
4.47998	
4.47388	
4.4632	
4.46472	
4.47388	
4.47998	
4.48456	
4.47845	
4.47235	
4.4693	
4.46777	
4.46625	
4.47388	
4.48303	
4.47998	
4.47083	
4.46777	
4.47083	
4.47235	
4.47388	
4.47998	
4.48303	
4.48151	
4.47845	
4.48151	
4.47388	
4.46777	
4.46472	
4.46777	
4.46472	
4.46167	
4.4632	
4.45557	
4.46014	
4.46472	
4.46472	
4.45709	
4.46472	
4.4693	
4.4693	
4.46777	
4.4632	
4.46777	
4.46014	
4.4632	
4.4632	
4.46167	
4.46472	
4.46014	
4.46014	
4.45709	
4.46014	
4.49219	
4.50592	
4.50439	
4.49677	
4.47388	
4.46472	
4.45557	
4.45251	
4.43878	
4.4281	
4.41742	
4.41284	
4.422	
4.42505	
4.43726	
4.44641	
4.46014	
4.4754	
4.47998	
4.49219	
4.47845	
4.47235	
4.4754	
4.47693	
4.47693	
4.48303	
4.47235	
4.46777	
4.46014	
4.46014	
4.45404	
4.44946	
4.46167	
4.45709	
4.45557	
4.45709	
4.46167	
4.4632	
4.4632	
4.46014	
4.46472	
4.4693	
4.4693	
4.47693	
4.48608	
4.49371	
4.49982	
4.49829	
4.48456	
4.48151	
4.47693	
4.47235	
4.4693	
4.46014	
4.44946	
4.46625	
4.47693	
4.47388	
4.47998	
4.48608	
4.49066	
4.49982	
4.48761	
4.48151	
4.46777	
4.45251	
4.44336	
4.44336	
4.45251	
4.47083	
4.47388	
4.47083	
4.47845	
4.47693	
4.4693	
4.47083	
4.4693	
4.46625	
4.46777	
4.47235	
4.46777	
4.46167	
4.46472	
4.46472	
4.46014	
4.45709	
4.45709	
4.44946	
4.44336	
4.45404	
4.45709	
4.4632	
4.46777	
4.46777	
4.4693	
4.4754	
4.47845	
4.47083	
4.46014	
4.47388	
4.47235	
4.46014	
4.45251	
4.45099	
4.45099	
4.46777	
4.47235	
4.46625	
4.45709	
4.46167	
4.47083	
4.4693	
4.46472	
4.45709	
4.46167	
4.46167	
4.46777	
4.4693	
4.46472	
4.46472	
4.45709	
4.45099	
4.44641	
4.45251	
4.45709	
4.47388	
4.47998	
4.47845	
4.47235	
4.47388	
4.49219	
4.50287	
4.49524	
4.48761	
4.48151	
4.47388	
4.4632	
4.45404	
4.44489	
4.43726	
4.43726	
4.4281	
4.4342	
4.44336	
4.44489	
4.44794	
4.44794	
4.4693	
4.4693	
4.46625	
4.46167	
4.46625	
4.47083	
4.47083	
4.4754	
4.4693	
4.47235	
4.47083	
4.46167	
4.45709	
4.47388	
4.4754	
4.47083	
4.47235	
4.47235	
4.46472	
4.46472	
4.46625	
4.4632	
4.45709	
4.45404	
4.46167	
4.46625	
4.4632	
4.45709	
4.45099	
4.45099	
4.45557	
4.44794	
4.44641	
4.45099	
4.45709	
4.46167	
4.46777	
4.46472	
4.46472	
4.4693	
4.48151	
4.47693	
4.4693	
4.46625	
4.4632	
4.44641	
4.43726	
4.4342	
4.43573	
4.4342	
4.43726	
4.44031	
4.45099	
4.45404	
4.45251	
4.46625	
4.47388	
4.47388	
4.46777	
4.46167	
4.46625	
4.47388	
4.47388	
4.46472	
4.46472	
4.4632	
4.45557	
4.46014	
4.46625	
4.46777	
4.4632	
4.4693	
4.47235	
4.47388	
4.47083	
4.46625	
4.47845	
4.47845	
4.4754	
4.47388	
4.46472	
4.45709	
4.45557	
4.45404	
4.4632	
4.45557	
4.45099	
4.44946	
4.45099	
4.47235	
4.48303	
4.47998	
4.47083	
4.46625	
4.45557	
4.45404	
4.44183	
4.44641	
4.44336	
4.44794	
4.44946	
4.46014	
4.46472	
4.45709	
4.45557	
4.46472	
4.4693	
4.4632	
4.46625	
4.4632	
4.46777	
4.47235	
4.46625	
4.46472	
4.4632	
4.46625	
4.4693	
4.46625	
4.45709	
4.45557	
4.44489	
4.44336	
4.44489	
4.45099	
4.44641	
4.43726	
4.4342	
4.43878	
4.44031	
4.44489	
4.4632	
4.4754	
4.47845	
4.47693	
4.48151	
4.47845	
4.47388	
4.47388	
4.47388	
4.47235	
4.4754	
4.47388	
4.47083	
4.45709	
4.45251	
4.45709	
4.45251	
4.45251	
4.45404	
4.46472	
4.46777	
4.47235	
4.4693	
4.46472	
4.46014	
4.45709	
4.46014	
4.45557	
4.45404	
4.44946	
4.45099	
4.44946	
4.45251	
4.45709	
4.45404	
4.45557	
4.45557	
4.46167	
4.45709	
4.46472	
4.46014	
4.4632	
4.46625	
4.4632	
4.46472	
4.45557	
4.44946	
4.44336	
4.44031	
4.44336	
4.44794	
4.44794	
4.45251	
4.45557	
4.48303	
4.50287	
4.50592	
4.50134	
4.49371	
4.47998	
4.4693	
4.46167	
4.45404	
4.44794	
4.43878	
4.43268	
4.43268	
4.44031	
4.44489	
4.44641	
4.45404	
4.46472	
4.46167	
4.46625	
4.46472	
4.46014	
4.45557	
4.45251	
4.45404	
4.44946	
4.44794	
4.45709	
4.46167	
4.4693	
4.46472	
4.4632	
4.46014	
4.45709	
4.45557	
4.46472	
4.45709	
4.45251	
4.44946	
4.44794	
4.43726	
4.4281	
4.4281	
4.43268	
4.43573	
4.44183	
4.45099	
4.46167	
4.46167	
4.46625	
4.4693	
4.46472	
4.4754	
4.4693	
4.46625	
4.4693	
4.47235	
4.46625	
4.4693	
4.47083	
4.46777	
4.46472	
4.46014	
4.45557	
4.46472	
4.47083	
4.47693	
4.4754	
4.47998	
4.47235	
4.46777	
4.4632	
4.46014	
4.45404	
4.45099	
4.45099	
4.45709	
4.45709	
4.4632	
4.46014	
4.4632	
4.46777	
4.46167	
4.45404	
4.44794	
4.44794	
4.44641	
4.46014	
4.46625	
4.46625	
4.4693	
4.4632	
4.46014	
4.45709	
4.4693	
4.4693	
4.46472	
4.46014	
4.46625	
4.46625	
4.46777	
4.46625	
4.46625	
4.47235	
4.49371	
4.49677	
4.49066	
4.48151	
4.47388	
4.47388	
4.46625	
4.45709	
4.44641	
4.4342	
4.4281	
4.43573	
4.43726	
4.43878	
4.44946	
4.45404	
4.46625	
4.47083	
4.47235	
4.46777	
4.46625	
4.46777	
4.46472	
4.46167	
4.46167	
4.45404	
4.45251	
4.45099	
4.44641	
4.44946	
4.46014	
4.4693	
4.46167	
4.46167	
4.46777	
4.4693	
4.47083	
4.4754	
4.47083	
4.46472	
4.46625	
4.4632	
4.46472	
4.46167	
4.46472	
4.46625	
4.4693	
4.47693	
4.47693	
4.47235	
4.47083	
4.4693	
4.46777	
4.46472	
4.46014	
4.46014	
4.46014	
4.45557	
4.44946	
4.44794	
4.44794	
4.44794	
4.42963	
4.43115	
4.43115	
4.4281	
4.43268	
4.43573	
4.44183	
4.44794	
4.46472	
4.46472	
4.47845	
4.48303	
4.48456	
4.48456	
4.47693	
4.47845	
4.47845	
4.4754	
4.47235	
4.47235	
4.47388	
4.47235	
4.46625	
4.46472	
4.46472	
4.47235	
4.4754	
4.47235	
4.47388	
4.46777	
4.47235	
4.47388	
4.47083	
4.46472	
4.46167	
4.46014	
4.46167	
4.46472	
4.46777	
4.4693	
4.48761	
4.50134	
4.49982	
4.49524	
4.49066	
4.48151	
4.47235	
4.46167	
4.44946	
4.43726	
4.43573	
4.4342	
4.43268	
4.43115	
4.43573	
4.44031	
4.45557	
4.46472	
4.46014	
4.46625	
4.4693	
4.4754	
4.47693	
4.47388	
4.46777	
4.47235	
4.47388	
4.47083	
4.47235	
4.4693	
4.47235	
4.47388	
4.47845	
4.47388	
4.46777	
4.46625	
4.46472	
4.46472	
4.47083	
4.4754	
4.47388	
4.47083	
4.4632	
4.46014	
4.46167	
4.46472	
4.46014	
4.45709	
4.45709	
4.46777	
4.47083	
4.4693	
4.4632	
4.46167	
4.46167	
4.4693	
4.46472	
4.45557	
4.45404	
4.45099	
4.45251	
4.45404	
4.45251	
4.45557	
4.4632	
4.46472	
4.4693	
4.4693	
4.46625	
4.46472	
4.46167	
4.46472	
4.46472	
4.4632	
4.4632	
4.46472	
4.4632	
4.46472	
4.4632	
4.46472	
4.46472	
4.46472	
4.4632	
4.45709	
4.45404	
4.46014	
4.46777	
4.47235	
4.47388	
4.4693	
4.46777	
4.4693	
4.46472	
4.45709	
4.46167	
4.46014	
4.45709	
4.4632	
4.4632	
4.4632	
4.45557	
4.45709	
4.45404	
4.46167	
4.46167	
4.46625	
4.46625	
4.46777	
4.46625	
4.46625	
4.46777	
4.46777	
4.46625	
4.46625	
4.46472	
4.46167	
4.46014	
4.46625	
4.46472	
4.46777	
4.46777	
4.4693	
4.46625	
4.46625	
4.46167	
4.46167	
4.46014	
4.46014	
4.45557	
4.46167	
4.46472	
4.45404	
4.45557	
4.46167	
4.4693	
4.4693	
4.48151	
4.47998	
4.48303	
4.48303	
4.47845	
4.47388	
4.47083	
4.46777	
4.46777	
4.46167	
4.46014	
4.45404	
4.45099	
4.45557	
4.46014	
4.46625	
4.46625	
4.4754	
4.47388	
4.4754	
4.47388	
4.46625	
4.46014	
4.46167	
4.46167	
4.46167	
4.45404	
4.44946	
4.44641	
4.44336	
4.44641	
4.45099	
4.45557	
4.45251	
4.45251	
4.45709	
4.46167	
4.46014	
4.46777	
4.49371	
4.50134	
4.50745	
4.49524	
4.49066	
4.4754	
4.47235	
4.46472	
4.4632	
4.45709	
4.44946	
4.44489	
4.44489	
4.46167	
4.4632	
4.46777	
4.46777	
4.47693	
4.47845	
4.47845	
4.48151	
4.47998	
4.47693	
4.47693	
4.47845	
4.4754	
4.46625	
4.4632	
4.4632	
4.46014	
4.46472	
4.46167	
4.47235	
4.47693	
4.47845	
4.47083	
4.4693	
4.46014	
4.44794	
4.44183	
4.44489	
4.45557	
4.46472	
4.49066	
4.49371	
4.48456	
4.47235	
4.46472	
4.46167	
4.4632	
4.46167	
4.46167	
4.4632	
4.4632	
4.46472	
4.46014	
4.46014	
4.46625	
4.46625	
4.46777	
4.47388	
4.48151	
4.48151	
4.48456	
4.48151	
4.47845	
4.4693	
4.4754	
4.4693	
4.46472	
4.46625	
4.46014	
4.46014	
4.45709	
4.46167	
4.46167	
4.45709	
4.45709	
4.46167	
4.46472	
4.46472	
4.46167	
4.47083	
4.47998	
4.48456	
4.49219	
4.49219	
4.49066	
4.47845	
4.47083	
4.4632	
4.4632	
4.45709	
4.45099	
4.44946	
4.45251	
4.45557	
4.45404	
4.46014	
4.46014	
4.46167	
4.47235	
4.48608	
4.48303	
4.48151	
4.49066	
4.50439	
4.50745	
4.50439	
4.49677	
4.48303	
4.47693	
4.46472	
4.46167	
4.46625	
4.45709	
4.44794	
4.45404	
4.45251	
4.46167	
4.46014	
4.46472	
4.47693	
4.4754	
4.47388	
4.47235	
4.4754	
4.4754	
4.4693	
4.46777	
4.47388	
4.48456	
4.4754	
4.47845	
4.47235	
4.47693	
4.47388	
4.46625	
4.46014	
4.45557	
4.46014	
4.4693	
4.4754	
4.4693	
4.46777	
4.46777	
4.47083	
4.4693	
4.47083	
4.47083	
4.46472	
4.4754	
4.47845	
4.4754	
4.48151	
4.47388	
4.47845	
4.47845	
4.4754	
4.47693	
4.47388	
4.47388	
4.4754	
4.47693	
4.47998	
4.47845	
4.47388	
4.47693	
4.47845	
4.48151	
4.47845	
4.47693	
4.47693	
4.47693	
4.47693	
4.47998	
4.48151	
4.47845	
4.47693	
4.47083	
4.46472	
4.4693	
4.46777	
4.47083	
4.47388	
4.46625	
4.47235	
4.47693	
4.47235	
4.46777	
4.4693	
4.4693	
4.47083	
4.47693	
4.48761	
4.47845	
4.4754	
4.47845	
4.47998	
4.48151	
4.48151	
4.47845	
4.47388	
4.47845	
4.47998	
4.47998	
4.47998	
4.4754	
4.47693	
4.4754	
4.47388	
4.47388	
4.47083	
4.47388	
4.47388	
4.4754	
4.47693	
4.47693	
4.47388	
4.47845	
4.47693	
4.4754	
4.4754	
4.47845	
4.47693	
4.47845	
4.47693	
4.47845	
4.47845	
4.47693	
4.4754	
4.47693	
4.47388	
4.47693	
4.4754	
4.4754	
4.47388	
4.4754	
4.47388	
4.47388	
4.47235	
4.46777	
4.47083	
4.46777	
4.47083	
4.4693	
4.46625	
4.47388	
4.47388	
4.4754	
4.47693	
4.4754	
4.47845	
4.4754	
4.48151	
4.47845	
4.47693	
4.47845	
4.47693	
4.47235	
4.4754	
4.47388	
4.47388	
4.47388	
4.47235	
4.47845	
4.47845	
4.47388	
4.4754	
4.47693	
4.47388	
4.47083	
4.46625	
4.4693	
4.47693	
4.47693	
4.48151	
4.48303	
4.47998	
4.47693	
4.47693	
4.46777	
4.46777	
4.47083	
4.47235	
4.47388	
4.4754	
4.4754	
4.46167	
4.46167	
4.46777	
4.47845	
4.47998	
4.47693	
4.47388	
4.47235	
4.4754	
4.47998	
4.48151	
4.4754	
4.4693	
4.47388	
4.4754	
4.4754	
4.47235	
4.47388	
4.4754	
4.4754	
4.47235	
4.47388	
4.4754	
4.4693	
4.46625	
4.46625	
4.46625	
4.46625	
4.46777	
4.46777	
4.4754	
4.47998	
4.48151	
4.48151	
4.47998	
4.47693	
4.4754	
4.48456	
4.49524	
4.49371	
4.49371	
4.48761	
4.48608	
4.4754	
4.47235	
4.47083	
4.47235	
4.4754	
4.47235	
4.47693	
4.48151	
4.47693	
4.4754	
4.47693	
4.47998	
4.48608	
4.48151	
4.47388	
4.47388	
4.48608	
4.48608	
4.49066	
4.49219	
4.48456	
4.48151	
4.48151	
4.48303	
4.48151	
4.48456	
4.48608	
4.48608	
4.48761	
4.48303	
4.48456	
4.48303	
4.48303	
4.48151	
4.48151	
4.48456	
4.49219	
4.48761	
4.49371	
4.49524	
4.49066	
4.48456	
4.4754	
4.47388	
4.47388	
4.4693	
4.46777	
4.4632	
4.46472	
4.46625	
4.46472	
4.46777	
4.47388	
4.47998	
4.47998	
4.48151	
4.48608	
4.49066	
4.49066	
4.49219	
4.49371	
4.48608	
4.47998	
4.47388	
4.47388	
4.47083	
4.47235	
4.4754	
4.47083	
4.46777	
4.47083	
4.47235	
4.46777	
4.4754	
4.4754	
4.47388	
4.47235	
4.47998	
4.48303	
4.48761	
4.49219	
4.48608	
4.48151	
4.48608	
4.48151	
4.47845	
4.47998	
4.48151	
4.47845	
4.47845	
4.47845	
4.47998	
4.47998	
4.48151	
4.48303	
4.48151	
4.47998	
4.47998	
4.48151	
4.48151	
4.49219	
4.49219	
4.49524	
4.50439	
4.50439	
4.50287	
4.50897	
4.50745	
4.49829	
4.49524	
4.48608	
4.48608	
4.48151	
4.47388	
4.46777	
4.4693	
4.46167	
4.46167	
4.46625	
4.46777	
4.47845	
4.47998	
4.48151	
4.48608	
4.48151	
4.47235	
4.47693	
4.47388	
4.4754	
4.47845	
4.47388	
4.47083	
4.47693	
4.47845	
4.48151	
4.47998	
4.47693	
4.48456	
4.48151	
4.47998	
4.47998	
4.4754	
4.47693	
4.47693	
4.4754	
4.4754	
4.48456	
4.49677	
4.49524	
4.49982	
4.50134	
4.50287	
4.50134	
4.49066	
4.49219	
4.48456	
4.48303	
4.47998	
4.47998	
4.47693	
4.47693	
4.47235	
4.4754	
4.48151	
4.49677	
4.50134	
4.49982	
4.49829	
4.49219	
4.49219	
4.49066	
4.48608	
4.48303	
4.48151	
4.47998	
4.48456	
4.47998	
4.47845	
4.48151	
4.48151	
4.48456	
4.48151	
4.48608	
4.49524	
4.49524	
4.49066	
4.49371	
4.49829	
4.50287	
4.50439	
4.50134	
4.49829	
4.49371	
4.49066	
4.48608	
4.48303	
4.47845	
4.47998	
4.47083	
4.48151	
4.48456	
4.48303	
4.48151	
4.48151	
4.47998	
4.47998	
4.48303	
4.48303	
4.48608	
4.48608	
4.48303	
4.48608	
4.48151	
4.47693	
4.4754	
4.4754	
4.47845	
4.49066	
4.49677	
4.49371	
4.48761	
4.49524	
4.48151	
4.48456	
4.47845	
4.47693	
4.4693	
4.46777	
4.45557	
4.4632	
4.47235	
4.47693	
4.48608	
4.49219	
4.49066	
4.49219	
4.49524	
4.49524	
4.49066	
4.49524	
4.49371	
4.49524	
4.49677	
4.49829	
4.50592	
4.50897	
4.50745	
4.50592	
4.49829	
4.49524	
4.49677	
4.49066	
4.48608	
4.48608	
4.48151	
4.47845	
4.48151	
4.48456	
4.48761	
4.48761	
4.48303	
4.47693	
4.47388	
4.47693	
4.48151	
4.48303	
4.48456	
4.48456	
4.47998	
4.48608	
4.48303	
4.48303	
4.48151	
4.49066	
4.48608	
4.47845	
4.47845	
4.48303	
4.49982	
4.49829	
4.49219	
4.48761	
4.48456	
4.47998	
4.48303	
4.48303	
4.48608	
4.48151	
4.48151	
4.48761	
4.49524	
4.49524	
4.48151	
4.48761	
4.49371	
4.50287	
4.50439	
4.49982	
4.49677	
4.49677	
4.49524	
4.49066	
4.49524	
4.49371	
4.48761	
4.48608	
4.48151	
4.48456	
4.48303	
4.48151	
4.48303	
4.47845	
4.48303	
4.48151	
4.49677	
4.50439	
4.50592	
4.50287	
4.50134	
4.50134	
4.50439	
4.50287	
4.48456	
4.47998	
4.47388	
4.47388	
4.47998	
4.48151	
4.48456	
4.48761	
4.49219	
4.49524	
4.49829	
4.49524	
4.49524	
4.49219	
4.49524	
4.49524	
4.49677	
4.49829	
4.49524	
4.49677	
4.49371	
4.50134	
4.50134	
4.49982	
4.49677	
4.49982	
4.49371	
4.49066	
4.48303	
4.48151	
4.48151	
4.47845	
4.47998	
4.48456	
4.49219	
4.49066	
4.48303	
4.47693	
4.48456	
4.48608	
4.48456	
4.48456	
4.47388	
4.47693	
4.48608	
4.49219	
4.49524	
4.48608	
4.48303	
4.48151	
4.49219	
4.49219	
4.48608	
4.48303	
4.49219	
4.49219	
4.49677	
4.50134	
4.49829	
4.49829	
4.49524	
4.49371	
4.49066	
4.48608	
4.49371	
4.49829	
4.49829	
4.49829	
4.49371	
4.49066	
4.48608	
4.49219	
4.49219	
4.49219	
4.49371	
4.49219	
4.49066	
4.49066	
4.49371	
4.49371	
4.48456	
4.48303	
4.48761	
4.49524	
4.49982	
4.49829	
4.49677	
4.49066	
4.48761	
4.49371	
4.49677	
4.49677	
4.49677	
4.49524	
4.49219	
4.49677	
4.49982	
4.50287	
4.50287	
4.50592	
4.49677	
4.49219	
4.48303	
4.48456	
4.49219	
4.49219	
4.49066	
4.48303	
4.47693	
4.47235	
4.48151	
4.49371	
4.49829	
4.50134	
4.51355	
4.51508	
4.50745	
4.49219	
4.48608	
4.49371	
4.49219	
4.48456	
4.48608	
4.47998	
4.47693	
4.47845	
4.48456	
4.49371	
4.49982	
4.50134	
4.50134	
4.50439	
4.49982	
4.49982	
4.49982	
4.49066	
4.49066	
4.48608	
4.48608	
4.48456	
4.48608	
4.48608	
4.49066	
4.49677	
4.50439	
4.50745	
4.50745	
4.5105	
4.50439	
4.49829	
4.49524	
4.49371	
4.49219	
4.49066	
4.49677	
4.49524	
4.49524	
4.49524	
4.49524	
4.49677	
4.49982	
4.49982	
4.50134	
4.49829	
4.50439	
4.50745	
4.50134	
4.50134	
4.50134	
4.49982	
4.49677	
4.49524	
4.49066	
4.49524	
4.5105	
4.52118	
4.51813	
4.52423	
4.5166	
4.51813	
4.52118	
4.5105	
4.50287	
4.48303	
4.46472	
4.46014	
4.45404	
4.45404	
4.45404	
4.45709	
4.45709	
4.45557	
4.46625	
4.46014	
4.46014	
4.4754	
4.49066	
4.49982	
4.49219	
4.49829	
4.50134	
4.50592	
4.51202	
4.5166	
4.52118	
4.5105	
4.50592	
4.50134	
4.50287	
4.50287	
4.5105	
4.50897	
4.50287	
4.50745	
4.51508	
4.51355	
4.5105	
4.49829	
4.49219	
4.48761	
4.48761	
4.49219	
4.49829	
4.49982	
4.49677	
4.49371	
4.49371	
4.49524	
4.49219	
4.49066	
4.48761	
4.49219	
4.49219	
4.49524	
4.48761	
4.49524	
4.49524	
4.49371	
4.49982	
4.50287	
4.49524	
4.49677	
4.49219	
4.48456	
4.49219	
4.49066	
4.49219	
4.48761	
4.49219	
4.49371	
4.49524	
4.49371	
4.49219	
4.49524	
4.49677	
4.49371	
4.49677	
4.49982	
4.50592	
4.50745	
4.50592	
4.50287	
4.49982	
4.49677	
4.49677	
4.49524	
4.49219	
4.49524	
4.48761	
4.48761	
4.48761	
4.49066	
4.48608	
4.49371	
4.51202	
4.5105	
4.50745	
4.50439	
4.50134	
4.48456	
4.47388	
4.46625	
4.46625	
4.46472	
4.46014	
4.46625	
4.46167	
4.47693	
4.49829	
4.49677	
4.51508	
4.52271	
4.51355	
4.50287	
4.49829	
4.50592	
4.50134	
4.48608	
4.48456	
4.48761	
4.49371	
4.49524	
4.48608	
4.48608	
4.49066	
4.49066	
4.49524	
4.49524	
4.49219	
4.49219	
4.49066	
4.48608	
4.48761	
4.48151	
4.47693	
4.4754	
4.48303	
4.49982	
4.50897	
4.50745	
4.50592	
4.49829	
4.50134	
4.50134	
4.49982	
4.49829	
4.49677	
4.49982	
4.49829	
4.49371	
4.48608	
4.48761	
4.48761	
4.49371	
4.49829	
4.50439	
4.50897	
4.50134	
4.50439	
4.49982	
4.49829	
4.49219	
4.49524	
4.49066	
4.49371	
4.49219	
4.49066	
4.49371	
4.49219	
4.49524	
4.49371	
4.49066	
4.49219	
4.49371	
4.49371	
4.49524	
4.49371	
4.49524	
4.49371	
4.48761	
4.49066	
4.49524	
4.49219	
4.49524	
4.49219	
4.49371	
4.49219	
4.49524	
4.49677	
4.49524	
4.49677	
4.49219	
4.49677	
4.49677	
4.49524	
4.49677	
4.49524	
4.49829	
4.49219	
4.49066	
4.49066	
4.48608	
4.49219	
4.49829	
4.50287	
4.49982	
4.49982	
4.49677	
4.49829	
4.49524	
4.49677	
4.49677	
4.49677	
4.49066	
4.49524	
4.49677	
4.49677	
4.49829	
4.49677	
4.49677	
4.49677	
4.49982	
4.48761	
4.47845	
4.47693	
4.47998	
4.49371	
4.50592	
4.50439	
4.50897	
4.50897	
4.50439	
4.50592	
4.50439	
4.49371	
4.48151	
4.4693	
4.46167	
4.47388	
4.49066	
4.49524	
4.49219	
4.49677	
4.50287	
4.49982	
4.50592	
4.50134	
4.50287	
4.50287	
4.49524	
4.49677	
4.49677	
4.49677	
4.49829	
4.50134	
4.50287	
4.50287	
4.50134	
4.49677	
4.49677	
4.49982	
4.50134	
4.49982	
4.49371	
4.49982	
4.49829	
4.50134	
4.50439	
4.50439	
4.49982	
4.50134	
4.49982	
4.49524	
4.49677	
4.49677	
4.49982	
4.49829	
4.49524	
4.49371	
4.49677	
4.49829	
4.50134	
4.49982	
4.49371	
4.49524	
4.49829	
4.50287	
4.49982	
4.49524	
4.49524	
4.49982	
4.50134	
4.50592	
4.50287	
4.49982	
4.49982	
4.50287	
4.50287	
4.50287	
4.50439	
4.49982	
4.50287	
4.49524	
4.49829	
4.49829	
4.50439	
4.51202	
4.51355	
4.51508	
4.5105	
4.50439	
4.49524	
4.49371	
4.49066	
4.48761	
4.48608	
4.48151	
4.50439	
4.5166	
4.50592	
4.49066	
4.47693	
4.47235	
4.4754	
4.47083	
4.46472	
4.45251	
4.45557	
4.45709	
4.46167	
4.4632	
4.47388	
4.49371	
4.48761	
4.50134	
4.52576	
4.51813	
4.51355	
4.51202	
4.5166	
4.52118	
4.52423	
4.53033	
4.53186	
4.52728	
4.52881	
4.5166	
4.50134	
4.49371	
4.49829	
4.51508	
4.5105	
4.50745	
4.50897	
4.5105	
4.50592	
4.50592	
4.50134	
4.50897	
4.50745	
4.50439	
4.49982	
4.48761	
4.49524	
4.49982	
4.50287	
4.51355	
4.50897	
4.50287	
4.49829	
4.49829	
4.5105	
4.51355	
4.5105	
4.50897	
4.50439	
4.50134	
4.50134	
4.50439	
4.50287	
4.49982	
4.50287	
4.5105	
4.51202	
4.51355	
4.52118	
4.5105	
4.50745	
4.50897	
4.50745	
4.50745	
4.50745	
4.50745	
4.50745	
4.50134	
4.50439	
4.50134	
4.50439	
4.5105	
4.51202	
4.50745	
4.50745	
4.50439	
4.50592	
4.50745	
4.50745	
4.50592	
4.50897	
4.51202	
4.51355	
4.51202	
4.50592	
4.5105	
4.51355	
4.51508	
4.50897	
4.50439	
4.50134	
4.50134	
4.50439	
4.52728	
4.53796	
4.53033	
4.52423	
4.52118	
4.52271	
4.53186	
4.50897	
4.47998	
4.46472	
4.44489	
4.4342	
4.4342	
4.43878	
4.44794	
4.47083	
4.49829	
4.52118	
4.49982	
4.48456	
4.47235	
4.4632	
4.48761	
4.50134	
4.50287	
4.50745	
4.50439	
4.51813	
4.52423	
4.53796	
4.52423	
4.52271	
4.53186	
4.54712	
4.5578	
4.54102	
4.53339	
4.53033	
4.52728	
4.50897	
4.49829	
4.49677	
4.49982	
4.50745	
4.50897	
4.52271	
4.52881	
4.54102	
4.54712	
4.54712	
4.54712	
4.54559	
4.52881	
4.5105	
4.49982	
4.49066	
4.49677	
4.48761	
4.49066	
4.48761	
4.49829	
4.48608	
4.47998	
4.48303	
4.49219	
4.50287	
4.49982	
4.49677	
4.49677	
4.49524	
4.49982	
4.50592	
4.5105	
4.51202	
4.50745	
4.50287	
4.49524	
4.49371	
4.50134	
4.50745	
4.50897	
4.50897	
4.50897	
4.50897	
4.50897	
4.50897	
4.50439	
4.50439	
4.50439	
4.50592	
4.50439	
4.47998	
4.47388	
4.47388	
4.48303	
4.49829	
4.50134	
4.51355	
4.53339	
4.55017	
4.54559	
4.54712	
4.53491	
4.52271	
4.50439	
4.47388	
4.47388	
4.4632	
4.47693	
4.50897	
4.50134	
4.50134	
4.52423	
4.53186	
4.53186	
4.54254	
4.55322	
4.55017	
4.54254	
4.53949	
4.54102	
4.55017	
4.55322	
4.56696	
4.57001	
4.55475	
4.53796	
4.52576	
4.52423	
4.5105	
4.48303	
4.47845	
4.49066	
4.48761	
4.48303	
4.48303	
4.48761	
4.49371	
4.49677	
4.49066	
4.49219	
4.49219	
4.49066	
4.49066	
4.49524	
4.49677	
4.49829	
4.49371	
4.49371	
4.49677	
4.49677	
4.49371	
4.49982	
4.50592	
4.5105	
4.50745	
4.50592	
4.49982	
4.49524	
4.49829	
4.49829	
4.50134	
4.49829	
4.49829	
4.49371	
4.49677	
4.50287	
4.50287	
4.5105	
4.51508	
4.51508	
4.50592	
4.50439	
4.50897	
4.51355	
4.5166	
4.51202	
4.5105	
4.51355	
4.51202	
4.51355	
4.51355	
4.51355	
4.51508	
4.5105	
4.50897	
4.51202	
4.5105	
4.50897	
4.5105	
4.50745	
4.49982	
4.49219	
4.49066	
4.49219	
4.50592	
4.52423	
4.52423	
4.50439	
4.49066	
4.48151	
4.48456	
4.47845	
4.48761	
4.50439	
4.50745	
4.50592	
4.50897	
4.49982	
4.52271	
4.52118	
4.50745	
4.53339	
4.53644	
4.53491	
4.52576	
4.5166	
4.50897	
4.48151	
4.47693	
4.47235	
4.46014	
4.45709	
4.46472	
4.47845	
4.50897	
4.53491	
4.56696	
4.58832	
4.6051	
4.58984	
4.59137	
4.57458	
4.57611	
4.53339	
4.49677	
4.47845	
4.49219	
4.49524	
4.48303	
4.49371	
4.49066	
4.49066	
4.50287	
4.49524	
4.49982	
4.52881	
4.55017	
4.56085	
4.57001	
4.56696	
4.57458	
4.57916	
4.54865	
4.51355	
4.4632	
4.41589	
4.39758	
4.41895	
4.45404	
4.47845	
4.49371	
4.48608	
4.47998	
4.48608	
4.49371	
4.49524	
4.49219	
4.48608	
4.48303	
4.48608	
4.49066	
4.49982	
4.50592	
4.5166	
4.52118	
4.51355	
4.53339	
4.54865	
4.56543	
4.57306	
4.57306	
4.57001	
4.56085	
4.54712	
4.52423	
4.5166	
4.5166	
4.51813	
4.50592	
4.47998	
4.45709	
4.45709	
4.46167	
4.4693	
4.47388	
4.46625	
4.47235	
4.47693	
4.49066	
4.49982	
4.49677	
4.49219	
4.47998	
4.48303	
4.49219	
4.50592	
4.5166	
4.53491	
4.54559	
4.56085	
4.56543	
4.56543	
4.53796	
4.51508	
4.50287	
4.49982	
4.49677	
4.47235	
4.44946	
4.47845	
4.51508	
4.53186	
4.53186	
4.52576	
4.54102	
4.5639	
4.5578	
4.55627	
4.57001	
4.57764	
4.52728	
4.52118	
4.52118	
4.48761	
4.50439	
4.53033	
4.54712	
4.54407	
4.5929	
4.54254	
4.52423	
4.51813	
4.53186	
4.54254	
4.53339	
4.52118	
4.50592	
4.48761	
4.49066	
4.49829	
4.48608	
4.45557	
4.44336	
4.45099	
4.46625	
4.5578	
4.58679	
4.55475	
4.53949	
4.55322	
4.58069	
4.58527	
4.61578	
4.64478	
4.68903	
4.70276	
4.73328	
4.70886	
4.69818	
4.67224	
4.64478	
4.66156	
4.62646	
4.53796	
4.42352	
4.37469	
4.34113	
4.36249	
4.35638	
4.3808	
4.44794	
4.45404	
4.48456	
4.45404	
4.43268	
4.44641	
4.45709	
4.46472	
4.49371	
4.48303	
4.45251	
4.44794	
4.45099	
4.4693	
4.48303	
4.4693	
4.47693	
4.49066	
4.52118	
4.50897	
4.48761	
4.45709	
4.42352	
4.40063	
4.40521	
4.422	
4.43268	
4.45099	
4.49829	
4.52881	
4.53949	
4.54407	
4.5166	
4.51355	
4.52118	
4.52423	
4.5578	
4.58527	
4.62036	
4.57458	
4.57458	
4.57611	
4.54559	
4.55322	
4.54559	
4.52271	
4.51355	
4.50439	
4.49066	
4.5105	
4.56238	
4.60052	
4.56696	
4.57611	
4.5929	
4.58679	
4.53796	
4.5578	
4.48456	
4.50592	
4.50897	
4.51202	
4.48151	
4.46777	
4.44336	
4.49066	
4.55475	
4.54865	
4.57916	
4.55322	
4.53186	
4.52423	
4.50134	
4.5105	
4.54407	
4.54865	
4.54102	
4.52881	
4.53186	
4.54712	
4.54712	
4.57916	
4.60358	
4.58679	
4.52576	
4.40674	
4.3869	
4.42047	
4.43115	
4.44183	
4.45557	
4.53033	
4.54102	
4.56543	
4.58527	
4.56543	
4.50439	
4.54102	
4.52576	
4.52881	
4.52423	
4.52576	
4.55322	
4.55475	
4.55017	
4.52271	
4.44641	
4.39911	
4.38995	
4.4281	
4.41895	
4.43878	
4.44946	
4.49371	
4.54254	
4.5929	
4.62494	
4.62494	
4.54559	
4.59595	
4.63715	
4.63715	
4.60358	
4.60358	
4.53796	
4.4754	
4.39453	
4.37469	
4.40979	
4.4754	
4.53796	
4.51355	
4.53644	
4.52423	
4.4632	
4.39911	
4.40979	
4.4281	
4.49066	
4.53186	
4.54407	
4.53186	
4.48608	
4.3808	
4.40369	
4.37012	
4.37012	
4.34418	
4.44031	
4.55627	
4.60663	
4.62952	
4.60205	
4.68292	
4.68597	
4.68292	
4.68445	
4.59747	
4.48761	
4.35333	
4.35486	
4.40369	
4.43115	
4.43268	
4.3396	
4.34265	
4.34723	
4.35181	
4.39911	
4.51355	
4.57458	
4.62799	
4.71039	
4.77295	
4.71039	
4.69971	
4.70428	
4.55933	
4.48303	
4.37012	
4.40826	
4.37469	
4.22211	
4.25415	
4.32281	
4.33197	
4.26331	
4.28009	
4.34113	
4.45709	
4.5166	
4.58832	
4.65546	
4.70886	
4.776	
4.78058	
4.71039	
4.71191	
4.65698	
4.48608	
4.4693	
4.44336	
4.47693	
4.49524	
4.5639	
4.57916	
4.66309	
4.67377	
4.56085	
4.4281	
4.422	
4.37469	
4.32892	
4.38538	
4.46625	
4.4693	
4.46777	
4.43115	
4.44336	
4.50134	
4.599	
4.47388	
4.41589	
4.31366	
4.27704	
4.16565	
4.25568	
4.46777	
4.43268	
4.58527	
4.66919	
4.59595	
4.60968	
4.60663	
4.51202	
4.50287	
4.35638	
4.36249	
4.37622	
4.45251	
4.52576	
4.6051	
4.54712	
4.60052	
4.39453	
4.29382	
4.27094	
4.40979	
4.43268	
4.47235	
4.56696	
4.61884	
4.70734	
4.65546	
4.71191	
4.72107	
4.58374	
4.29535	
4.26483	
4.245	
4.28467	
4.09851	
4.04816	
4.13208	
4.31824	
4.49219	
4.6051	
4.7699	
4.75006	
4.76227	
4.52881	
4.18701	
3.73077	
3.74451	
3.84674	
4.11072	
4.31519	
4.52423	
4.47693	
4.69208	
4.75464	
4.75159	
4.65546	
4.63867	
4.71039	
4.61426	
4.41742	
4.22821	
4.29535	
4.52423	
4.63409	
4.57916	
4.46777	
4.21448	
4.04663	
4.07257	
4.06189	
4.039	
4.12292	
3.8559	
3.78876	
3.92303	
4.04358	
4.10309	
4.19922	
4.28314	
4.28467	
4.15497	
4.32892	
4.14124	
4.14581	
4.04663	
4.06189	
3.89709	
3.87573	
4.23279	
4.71954	
4.98352	
5.27191	
5.10559	
4.97589	
4.776	
4.18854	
3.74451	
3.73688	
4.01917	
4.25568	
4.52576	
4.76227	
4.90112	
4.7348	
4.39453	
4.13208	
3.8559	
3.67584	
3.80249	
3.91998	
4.26636	
4.22974	
4.49829	
4.47693	
4.43115	
4.4342	
4.50745	
4.54254	
4.39758	
4.64172	
4.79736	
4.95758	
4.69971	
4.56238	
4.5929	
4.63257	
4.39148	
4.03442	
3.21503	
3.39355	
3.45001	
3.31879	
3.61023	
4.05121	
4.88434	
5.11322	
5.27649	
5.18188	
5.27344	
5.06897	
4.64935	
4.31213	
4.20532	
4.30756	
4.36401	
4.28467	
4.00238	
4.08325	
3.75061	
3.84674	
4.10919	
4.37012	
4.54865	
4.48151	
4.35028	
4.245	
4.63409	
4.71191	
4.10767	
4.01154	
4.57458	
4.55322	
4.35028	
4.34723	
4.61578	
4.93011	
5.18036	
5.20782	
5.00641	
5.22003	
5.04913	
4.66919	
4.47845	
4.37164	
4.09241	
3.94897	
2.90222	
2.54211	
2.80762	
3.46832	
4.13818	
4.58374	
5.159	
5.56946	
4.93469	
4.44489	
4.29077	
4.28314	
4.06494	
4.28009	
4.37317	
4.28772	
4.35791	
4.46472	
4.04205	
4.13818	
4.14276	
4.43115	
4.33807	
3.40881	
2.5177	
2.65961	
3.12195	
3.52173	
3.88641	
4.7348	
4.78363	
4.14581	
3.82233	
4.13666	
4.43878	
3.89557	
3.87878	
4.12445	
4.01459	
3.98712	
3.98254	
4.0802	
4.07562	
3.87878	
2.87323	
1.75934	
1.63727	
2.04163	
2.74506	
3.02582	
3.96729	
4.49982	
4.34265	
4.2038	
4.28314	
4.25568	
4.13361	
3.52478	
3.1601	
2.96783	
2.71759	
2.5116	
2.78931	
3.19366	
3.40118	
2.44904	
2.20184	
2.17285	
2.27356	
2.24457	
2.565	
2.59552	
3.17993	
2.6886	
2.65808	
2.97546	
3.13568	
3.01971	
3.21503	
3.22418	
3.0304	
2.80457	
2.58026	
2.65808	
2.32391	
2.24609	
1.33209	
0.920105	
0.514221	
1.19934	
1.46027	
2.04926	
2.9129	
3.57971	
2.39105	
1.81274	
1.83258	
1.94397	
2.29492	
2.211	
1.9043	
1.55792	
1.24207	
1.37634	
1.37939	
1.57623	
1.69678	
0.540161	
0.57373	
0.798035	
1.13068	
1.90277	
1.91498	
1.31989	
1.18561	
1.03149	
1.37329	
1.11084	
1.67999	
1.90277	
1.31073	
1.13678	
1.33362	
1.49231	
0.187683	
0.0350952	
0.708008	
0.843811	
1.01624	
1.23901	
1.29547	
0.546265	
0.245667	
0.799561	
0.769043	
0.85907	
0.822449	
1.16882	
0.918579	
0.384521	
-0.401306	
-0.262451	
-0.088501	
0.614929	
0.701904	
0.666809	
0.8255	
0.541687	
0.161743	
0.357056	
0.646973	
1.04218	
0.294495	
-0.553894	
-0.695801	
-0.158691	
0.852966	
1.01624	
0.727844	
0.590515	
-0.154114	
-0.872803	
-0.679016	
-0.480652	
-0.32959	
-0.405884	
-0.852966	
-0.202942	
0.500488	
1.02844	
0.987244	
0.92926	
0.987244	
0.471497	
-0.448608	
-0.862122	
-0.834656	
-0.527954	
-0.469971	
-0.578308	
-0.193787	
-0.236511	
-0.737	
-0.392151	
-0.335693	
-0.653076	
0.0350952	
1.05743	
1.21765	
0.674438	
-0.0106812	
0.120544	
-0.669861	
-0.880432	
-0.666809	
-0.846863	
-0.593567	
-0.421143	
-0.32959	
-0.556946	
-1.6922	
-1.75934	
-1.23291	
-0.631714	
0.140381	
0.811768	
0.517273	
-0.721741	
-1.10474	
-0.328064	
-0.184631	
-0.686646	
-1.34583	
-1.21002	
-0.950623	
-1.06964	
-0.733948	
0.636292	
1.05743	
0.109863	
-0.271606	
-0.439453	
-0.733948	
-1.18713	
-1.41907	
-1.34888	
-1.18103	
-0.85144	
-1.04675	
-1.12305	
-1.24207	
-1.5976	
-1.17188	
-1.13983	
-0.111389	
0.241089	
1.06659	
0.428772	
0.265503	
0.00305176	
-0.468445	
-0.830078	
-0.956726	
-1.16272	
-1.30005	
-0.776672	
-0.640869	
-0.689697	
-0.717163	
-1.19171	
-1.85547	
-1.70288	
-1.45721	
-0.68512	
-0.384521	
0.328064	
0.0427246	
-0.0549316	
0.320435	
0.878906	
0.924683	
0.292969	
-0.294495	
-1.07574	
-1.28632	
-1.28937	
-1.08185	
-0.506592	
-0.012207	
0.210571	
-0.485229	
-0.595093	
-0.820923	
-1.47247	
-1.53046	
-0.997925	
-0.973511	
-0.9552	
-1.3031	
-1.14288	
-0.566101	
-0.369263	
-0.325012	
0.0640869	
0.0137329	
0.296021	
0.527954	
-0.0656128	
-0.492859	
-1.11389	
-0.366211	
-0.559998	
-0.88501	
-1.19629	
-1.58691	
-2.59247	
-2.04773	
-1.18561	
-0.569153	
-0.695801	
-0.608826	
-0.0686646	
-0.740051	
-1.32446	
-1.25122	
-0.967407	
-1.31683	
-0.660706	
-0.71106	
-0.665283	
-0.460815	
-0.85907	
-0.990295	
-2.29645	
-1.9928	
-1.32751	
-1.84326	
-1.5625	
-1.06506	
-0.254822	
-0.038147	
-0.382996	
-0.820923	
-1.37482	
-1.75629	
-1.73798	
-1.65405	
-1.94397	
-1.56708	
-0.946045	
-0.733948	
-0.810242	
-0.856018	
-1.11237	
-1.74713	
-1.95618	
-1.49689	
-1.12305	
-1.93634	
-2.16217	
-1.97144	
-1.68152	
-1.16882	
-1.11084	
-0.627136	
-0.787354	
-1.32294	
-1.64032	
-1.56555	
-1.72119	
-1.7868	
-2.27203	
-1.9577	
-1.86615	
-1.93024	
-1.71967	
-1.02997	
-0.987244	
-1.09711	
-1.32294	
-1.59302	
-1.85394	
-2.24915	
-2.56958	
-2.63367	
-2.09503	
-1.84326	
-1.80359	
-1.44958	
-1.48468	
-1.74561	
-2.33307	
-2.18353	
-2.09351	
-2.2995	
-2.51465	
-2.64282	
-2.42157	
-2.44141	
-2.63977	
-3.12958	
-2.97699	
-2.78168	
-2.60468	
-2.75574	
-3.04565	
-2.948	
-3.92151	
-4.23737	
-4.18243	
-3.70331	
-3.10211	
-3.07617	
-3.2074	
-3.4317	
-3.18298	
-3.27454	
-3.33405	
-2.90527	
-2.93579	
-3.35083	
-3.70789	
-3.88641	
-4.05426	
-4.12445	
-4.01154	
-4.04968	
-4.01154	
-4.39911	
-4.31061	
-4.23126	
-4.15497	
-3.94287	
-3.89404	
-4.52881	
-5.159	
-4.93622	
-4.81415	
-4.19312	
-3.65753	
-3.44543	
-3.97186	
-4.61121	
-4.76227	
-4.57458	
-4.72717	
-4.47693	
-4.60052	
-4.97742	
-5.07202	
-5.18188	
-5.27344	
-5.36804	
-5.40924	
-5.35278	
-5.43518	
-5.18188	
-4.953	
-5.47638	
-5.49774	
-5.50079	
-5.29175	
-5.29175	
-5.12695	
-5.36194	
-5.32074	
-5.46722	
-5.79376	
-5.56946	
-5.5069	
-5.47791	
-5.93262	
-6.62842	
-6.85883	
-6.51703	
-5.96466	
-5.49164	
-5.47943	
-5.53589	
-6.22559	
-6.1615	
-5.86548	
-5.49164	
-5.6488	
-5.34821	
-5.07507	
-5.76172	
-6.12793	
-5.79987	
-6.17981	
-6.7215	
-6.55518	
-6.59027	
-6.59943	
-6.89392	
-6.92749	
-6.427	
-6.03333	
-5.87158	
-6.14166	
-5.86548	
-6.09283	
-6.49567	
-6.31866	
-6.17371	
-6.6925	
-7.42035	
-7.20215	
-6.5567	
-6.4743	
-6.35834	
-6.08978	
-6.20728	
-5.86548	
-5.31006	
-5.60303	
-5.89294	
-5.96466	
-7.13654	
-7.44629	
-7.18536	
-6.81458	
-6.74896	
-6.65894	
-6.50787	
-6.72913	
-6.95496	
-6.91986	
-6.85272	
-6.73981	
-6.64673	
-6.51093	
-6.30951	
-7.11823	
-7.13654	
-6.18896	
-5.88989	
-6.14166	
-6.65436	
-6.3858	
-6.99005	
-7.87811	
-7.27997	
-6.90765	
-7.00073	
-7.24945	
-7.57599	
-7.33337	
-7.22961	
-7.1701	
-6.91833	
-6.75659	
-6.68335	
-6.87103	
-6.81152	
-6.73981	
-6.70319	
-6.48651	
-6.8985	
-7.75452	
-7.67517	
-6.95648	
-6.55823	
-6.34308	
-6.4743	
-6.77185	
-7.24945	
-7.59888	
-7.73163	
-7.65686	
-6.97784	
-6.3385	
-6.55518	
-6.98547	
-7.07397	
-7.31964	
-7.80182	
-8.10852	
-7.83691	
-7.72858	
-7.40662	
-7.35474	
-7.23877	
-7.05719	
-7.44019	
-7.23267	
-7.66296	
-7.71332	
-7.58362	
-7.33185	
-7.50885	
-7.4646	
-7.48138	
-7.96509	
-8.1604	
-7.78503	
-7.25861	
-6.92444	
-7.13654	
-6.9458	
-6.8161	
-6.94122	
-6.96869	
-7.10602	
-7.07703	
-6.66351	
-6.97021	
-7.04803	
-6.20728	
-5.85632	
-6.34766	
-6.79474	
-6.75964	
-6.65588	
-7.02362	
-6.6925	
-6.48041	
-6.40259	
-6.51398	
-6.57196	
-6.62231	
-6.51398	
-6.53534	
-6.48193	
-6.27594	
-5.84259	
-6.02417	
-6.49719	
-6.24847	
-6.32477	
-6.28204	
-6.06079	
-5.69305	
-5.76172	
-5.92346	
-6.02264	
-5.8548	
-5.87311	
-6.04248	
-5.69305	
-5.7785	
-5.81055	
-5.89142	
-5.83344	
-5.96924	
-5.88989	
-5.93567	
-6.1203	
-6.13251	
-5.88531	
-6.15845	
-6.15082	
-5.6778	
-5.49164	
-5.51605	
-5.85022	
-5.07813	
-5.67169	
-6.51855	
-6.3446	
-5.84717	
-5.55878	
-5.52063	
-5.50537	
-5.58929	
-5.57098	
-6.21948	
-5.98297	
-5.65796	
-5.85785	
-5.7785	
-5.58929	
-5.41382	
-5.60455	
-5.58624	
-5.87463	
-5.8136	
-5.66864	
-5.32532	
-5.16357	
-5.05524	
-5.32074	
-5.83496	
-6.11115	
-6.29272	
-6.06689	
-6.17523	
-6.08063	
-5.89905	
-5.79681	
-5.83496	
-5.71136	
-5.55115	
-5.74646	
-5.7785	
-5.54962	
-5.23071	
-5.26123	
-5.77698	
-5.86853	
-5.89447	
-5.79987	
-5.71747	
-5.5954	
-5.60303	
-5.5542	
-5.66864	
-5.56335	
-5.59235	
-5.71136	
-5.83649	
-6.52771	
-6.99463	
-6.57654	
-5.94025	
-5.04913	
-4.60052	
-4.4342	
-4.05426	
-4.77905	
-5.42297	
-5.44891	
-5.39398	
-5.3009	
-5.40314	
-5.41382	
-5.39703	
-5.35583	
-5.336	
-5.24139	
-5.20172	
-5.16815	
-5.17273	
-5.25665	
-4.97742	
-4.98505	
-5.03235	
-5.06287	
-5.12085	
-5.16357	
-5.36652	
-5.45349	
-5.11627	
-5.24139	
-5.15594	
-5.08881	
-4.85229	
-4.96674	
-4.98047	
-4.91486	
-5.02014	
-5.21088	
-5.13	
-5.00946	
-4.89502	
-5.06134	
-5.11932	
-5.08881	
-5.0766	
-5.21088	
-5.21088	
-5.07507	
-5.17731	
-5.15442	
-6.13403	
-5.90668	
-5.16663	
-4.31213	
-3.85742	
-3.9978	
-4.29993	
-4.34875	
-5.11475	
-5.05829	
-5.0705	
-4.9408	
-4.76074	
-4.90723	
-5.00488	
-4.96521	
-4.96826	
-4.94537	
-4.98199	
-5.0766	
-5.09338	
-5.06592	
-5.05219	
-5.1178	
-5.13306	
-4.90875	
-4.78363	
-4.82788	
-4.83704	
-4.89502	
-4.97437	
-5.05981	
-5.03387	
-4.96674	
-4.67834	
-4.59137	
-4.39606	
-4.59442	
-4.59442	
-4.53644	
-4.64325	
-5.26733	
-5.09338	
-4.75159	
-4.83704	
-4.84772	
-4.84314	
-4.76532	
-4.80652	
-4.79889	
-4.77142	
-4.74548	
-4.73328	
-4.66614	
-4.62799	
-4.60968	
-4.66614	
-4.69208	
-4.69971	
-4.69818	
-4.69971	
-4.69666	
-4.65393	
-4.63867	
-4.92249	
-4.97437	
-4.90417	
-4.86603	
-4.76227	
-4.53033	
-4.28772	
-4.49829	
-4.77142	
-4.73328	
-4.57764	
-4.46472	
-4.48456	
-4.4632	
-4.49371	
-4.57458	
-4.65088	
-4.71954	
-4.83551	
-4.96216	
-5.19562	
-5.44739	
-5.38483	
-5.2063	
-4.79584	
-4.5639	
-4.41284	
-4.08173	
-4.04358	
-4.28619	
-4.45862	
-4.52271	
-4.53796	
-4.48303	
-4.42963	
-4.57764	
-4.62341	
-4.62036	
-4.57153	
-4.47998	
-4.47998	
-4.51508	
-4.57306	
-4.64783	
-4.48303	
-4.47388	
-4.25415	
-4.15802	
-4.16565	
-4.25415	
-4.32434	
-4.38538	
-4.54102	
-4.60663	
-4.58679	
-4.55933	
-4.50592	
-4.44183	
-4.43878	
-4.45709	
-4.43878	
-4.43268	
-4.40674	
-4.37622	
-4.34265	
-4.34418	
-4.33807	
-4.35028	
-4.34418	
-4.3396	
-4.33044	
-4.34113	
-4.33807	
-4.35486	
-4.34265	
-4.35638	
-4.4342	
-4.48914	
-4.42352	
-4.37775	
-4.35181	
-4.30298	
-4.12598	
-4.0451	
-4.0741	
-4.12292	
-4.09393	
-4.09393	
-4.12292	
-4.13666	
-4.16565	
-4.18701	
-4.17328	
-4.17023	
-4.19159	
-4.20227	
-4.2038	
-4.24042	
-4.32129	
-4.54712	
-4.5929	
-4.73022	
-4.60052	
-4.54102	
-4.4754	
-4.216	
-4.05579	
-3.94897	
-4.02527	
-3.98865	
-3.98254	
-3.9566	
-3.93524	
-3.94592	
-3.80402	
-3.68805	
-3.84216	
-3.8147	
-3.79181	
-3.79181	
-3.83453	
-3.80859	
-3.75366	
-3.7323	
-3.78876	
-3.91693	
-3.96881	
-3.9566	
-3.88947	
-3.85742	
-3.82996	
-3.80096	
-3.75366	
-3.78571	
-3.85742	
-3.91235	
-3.9505	
-3.99017	
-3.8681	
-3.82538	
-3.81317	
-3.73993	
-3.76282	
-3.75519	
-3.46527	
-3.63617	
-3.64227	
-3.66211	
-3.63312	
-3.61023	
-3.5965	
-3.62701	
-3.60565	
-3.59344	
-3.57361	
-3.57056	
-3.58276	
-3.57666	
-3.58582	
-3.61481	
-3.66669	
-3.64227	
-3.60718	
-3.59955	
-3.61633	
-3.61633	
-3.63007	
-3.61176	
-3.59039	
-3.56445	
-3.54309	
-3.52325	
-3.51715	
-3.49731	
-3.49579	
-3.48206	
-3.4668	
-3.46069	
-3.44543	
-3.44391	
-3.43323	
-3.43933	
-3.42102	
-3.40881	
-3.41034	
-3.39813	
-3.39203	
-3.37677	
-3.36761	
-3.36456	
-3.3371	
-3.30963	
-3.28522	
-3.28064	
-3.33405	
-3.52173	
-3.53394	
-3.4729	
-3.41492	
-3.35541	
-3.36151	
-3.28827	
-3.09601	
-3.0304	
-2.93427	
-2.96478	
-2.92511	
-2.84576	
-2.83356	
-2.80762	
-2.79388	
-2.82593	
-2.83356	
-2.84271	
-2.88239	
-2.85492	
-2.8656	
-2.88239	
-2.88544	
-2.88544	
-2.87933	
-2.88544	
-2.89459	
-2.89459	
-2.86865	
-2.85797	
-2.86102	
-2.86255	
-2.8656	
-2.86255	
-2.85187	
-2.83203	
-2.81067	
-2.80457	
-2.81219	
-2.79846	
-2.79236	
-2.77863	
-2.82135	
-2.83203	
-2.82745	
-2.83203	
-2.83966	
-2.8244	
-2.78015	
-2.75879	
-2.75269	
-2.79083	
-2.83356	
-2.84729	
-2.83356	
-2.80914	
-2.79083	
-2.77252	
-2.75879	
-2.74353	
-2.71912	
-2.69928	
-2.6886	
-2.66876	
-2.65045	
-2.63367	
-2.61841	
-2.59857	
-2.58026	
-2.56805	
-2.54822	
-2.52838	
-2.52228	
-2.51312	
-2.49176	
-2.48718	
-2.47955	
-2.45361	
-2.41852	
-2.39105	
-2.35901	
-2.33765	
-2.33917	
-2.33459	
-2.3056	
-2.26898	
-2.23694	
-2.19421	
-2.16522	
-2.10876	
-2.07977	
-2.07672	
-2.05841	
-2.04926	
-2.02332	
-1.9928	
-1.96228	
-1.93634	
-1.91956	
-1.90582	
-1.87836	
-1.85089	
-1.82495	
-1.80054	
-1.7807	
-1.74866	
-1.71356	
-1.68915	
-1.67694	
-1.65253	
-1.64032	
-1.62354	
-1.60065	
-1.58844	
-1.56403	
-1.53961	
-1.51062	
-1.48163	
-1.45721	
-1.44196	
-1.42212	
-1.40381	
-1.39008	
-1.36719	
-1.3382	
-1.31683	
-1.29852	
-1.26953	
-1.25122	
-1.23291	
-1.20697	
-1.1734	
-1.15814	
-1.13525	
-1.10626	
-1.08643	
-1.07117	
-1.0498	
-1.03455	
-1.01776	
-0.999451	
-0.971985	
-0.949097	
-0.933838	
-0.917053	
-0.895691	
-0.875854	
-0.865173	
-0.845337	
-0.816345	
-0.794983	
-0.770569	
-0.765991	
-0.767517	
-0.762939	
-0.740051	
-0.717163	
-0.708008	
-0.697327	
-0.680542	
-0.669861	
-0.654602	
-0.628662	
-0.617981	
-0.624084	
-0.587463	
-0.593567	
-0.58136	
-0.57373	
-0.556946	
-0.550842	
-0.547791	
-0.532532	
-0.505066	
-0.476074	
-0.437927	
-0.424194	
-0.419617	
-0.39978	
-0.38147	
-0.354004	
-0.318909	
-0.302124	
-0.286865	
-0.273132	
-0.262451	
-0.238037	
-0.221252	
-0.204468	
-0.19989	
-0.198364	
-0.209045	
-0.22583	
-0.202942	
-0.205994	
-0.198364	
-0.190735	
-0.189209	
-0.157166	
-0.1297	
-0.126648	
-0.123596	
-0.111389	
-0.0961304	
-0.0717163	
-0.038147	
-0.00305176	
0.00762939	
0.00610352	
0.012207	
0.0137329	
0.0228882	
0.0411987	
0.0518799	
0.0564575	
0.0671387	
0.0793457	
0.102234	
0.117493	
0.128174	
0.131226	
0.138855	
0.151062	
0.175476	
0.218201	
0.22583	
0.234985	
0.244141	
0.230408	
0.236511	
0.25177	
0.257874	
0.270081	
0.288391	
0.302124	
0.317383	
0.325012	
0.338745	
0.349426	
0.363159	
0.376892	
0.390625	
0.39978	
0.408936	
0.424194	
0.434875	
0.442505	
0.45166	
0.45929	
0.4776	
0.489807	
0.517273	
0.523376	
0.540161	
0.558472	
0.570679	
0.595093	
0.593567	
0.57373	
0.57373	
0.590515	
0.592041	
0.584412	
0.58136	
0.584412	
0.604248	
0.630188	
0.675964	
0.723267	
0.772095	
0.784302	
0.785828	
0.784302	
0.767517	
0.767517	
0.762939	
0.769043	
0.816345	
0.865173	
0.869751	
0.831604	
0.741577	
0.686646	
0.688171	
0.698853	
0.735474	
0.765991	
0.811768	
0.854492	
0.90332	
0.914001	
0.92926	
0.975037	
1.03302	
1.0849	
1.091	
1.05896	
1.07574	
1.09406	
1.11542	
1.10474	
1.10016	
1.08032	
1.09558	
1.12305	
1.12152	
1.11694	
1.08032	
1.06049	
1.06964	
1.091	
1.09711	
1.11694	
1.13831	
1.13678	
1.15662	
1.15509	
1.16272	
1.18256	
1.21307	
1.23138	
1.21155	
1.21613	
1.21155	
1.22833	
1.22833	
1.22986	
1.23138	
1.21307	
1.22681	
1.24359	
1.25732	
1.27258	
1.31073	
1.33209	
1.29852	
1.27411	
1.25427	
1.25732	
1.26801	
1.28632	
1.29242	
1.31531	
1.33667	
1.3382	
1.34125	
1.34583	
1.35345	
1.34583	
1.33362	
1.34583	
1.37329	
1.3916	
1.40381	
1.43127	
1.43433	
1.44043	
1.42975	
1.41754	
1.41602	
1.42059	
1.42975	
1.44196	
1.46179	
1.47858	
1.49384	
1.49841	
1.49841	
1.50146	
1.50299	
1.49536	
1.49078	
1.49078	
1.49384	
1.50299	
1.51215	
1.5274	
1.54419	
1.54572	
1.54419	
1.56403	
1.5686	
1.57928	
1.58539	
1.58997	
1.58234	
1.57318	
1.57928	
1.59149	
1.61133	
1.60828	
1.61133	
1.62354	
1.63269	
1.63574	
1.61743	
1.62964	
1.64642	
1.65405	
1.66168	
1.66779	
1.66779	
1.66626	
1.66626	
1.66779	
1.67236	
1.68304	
1.6983	
1.70898	
1.70441	
1.69983	
1.71204	
1.71509	
1.71661	
1.71661	
1.72729	
1.74103	
1.74561	
1.74713	
1.75018	
1.74561	
1.74713	
1.76086	
1.75934	
1.76697	
1.78528	
1.78223	
1.78528	
1.78375	
1.77765	
1.77002	
1.77307	
1.78528	
1.80664	
1.8158	
1.81885	
1.82953	
1.84784	
1.83563	
1.83105	
1.84021	
