-10.7372295
-10.7372295
-10.7356995
-10.7372295
-10.7387495
-10.7326495
-10.7356995
-10.7341695
-10.7326495
-10.7372295
-10.7356995
-10.7387495
-10.7387495
-10.7341695
-10.7356995
-10.7402795
-10.7402795
-10.7448595
-10.7417995
-10.7402795
-10.7402795
-10.7433295
-10.7387495
-10.7387495
-10.7356995
-10.7417995
-10.7417995
-10.7387495
-10.7417995
-10.7402795
-10.7433295
-10.7433295
-10.7448595
-10.7402795
-10.7387495
-10.7417995
-10.7417995
-10.7463795
-10.7479095
-10.7463795
-10.7479095
-10.7509595
-10.7479095
-10.7479095
-10.7448595
-10.7448595
-10.7433295
-10.7448595
-10.7448595
-10.7479095
-10.7524795
-10.7540095
-10.7555395
-10.7479095
-10.7555395
-10.7463795
-10.7509595
-10.7540095
-10.7555395
-10.7555395
-10.7509595
-10.7540095
-10.7524795
-10.7524795
-10.7509595
-10.7463795
-10.7448595
-10.7463795
-10.7463795
-10.7524795
-10.7524795
-10.7555395
-10.7570595
-10.7570595
-10.7524795
-10.7570595
-10.7509595
-10.7509595
-10.7524795
-10.7524795
-10.7555395
-10.7479095
-10.7463795
-10.7433295
-10.7433295
-10.7433295
-10.7417995
-10.7417995
-10.7417995
-10.7463795
-10.7433295
-10.7463795
-10.7479095
-10.7463795
-10.7479095
-10.7540095
-10.7479095
-10.7509595
-10.7463795
-10.7540095
-10.7479095
-10.7524795
-10.7509595
-10.7479095
-10.7448595
-10.7479095
-10.7509595
-10.7540095
-10.7524795
-10.7524795
-10.7555395
-10.7540095
-10.7524795
-10.7509595
-10.7524795
-10.7509595
-10.7509595
-10.7509595
-10.7509595
-10.7509595
-10.7479095
-10.7433295
-10.7433295
-10.7479095
-10.7448595
-10.7509595
-10.7479095
-10.7524795
-10.7540095
-10.7540095
-10.7570595
-10.7524795
-10.7555395
-10.7509595
-10.7555395
-10.7555395
-10.7540095
-10.7540095
-10.7570595
-10.7555395
-10.7540095
-10.7570595
-10.7555395
-10.7555395
-10.7509595
-10.7479095
-10.7479095
-10.7509595
-10.7463795
-10.7555395
-10.7479095
-10.7479095
-10.7524795
-10.7540095
-10.7555395
-10.7509595
-10.7524795
-10.7479095
-10.7479095
-10.7540095
-10.7479095
-10.7524795
-10.7524795
-10.7540095
-10.7540095
-10.7540095
-10.7509595
-10.7509595
-10.7509595
-10.7555395
-10.7524795
-10.7524795
-10.7509595
-10.7509595
-10.7433295
-10.7524795
-10.7463795
-10.7433295
-10.7448595
-10.7448595
-10.7509595
-10.7433295
-10.7524795
-10.7463795
-10.7524795
-10.7509595
-10.7433295
-10.7479095
-10.7433295
-10.7509595
-10.7524795
-10.7524795
-10.7555395
-10.7524795
-10.7509595
-10.7524795
-10.7524795
-10.7479095
-10.7463795
-10.7555395
-10.7524795
-10.7524795
-10.7524795
-10.7540095
-10.7555395
-10.7540095
-10.7570595
-10.7570595
-10.7570595
-10.7555395
-10.7540095
-10.7585895
-10.7570595
-10.7540095
-10.7540095
-10.7540095
-10.7555395
-10.7555395
-10.7555395
-10.7570595
-10.7601095
-10.7555395
-10.7570595
-10.7555395
-10.7463795
-10.7570595
-10.7555395
-10.7570595
-10.7585895
-10.7555395
-10.7570595
-10.7570595
-10.7540095
-10.7570595
-10.7555395
-10.7555395
-10.7585895
-10.7601095
-10.7616395
-10.7585895
-10.7585895
-10.7585895
-10.7570595
-10.7540095
-10.7555395
-10.7585895
-10.7585895
-10.7585895
-10.7616395
-10.7646895
-10.7616395
-10.7601095
-10.7601095
-10.7570595
-10.7601095
-10.7585895
-10.7585895
-10.7585895
-10.7616395
-10.7585895
-10.7585895
-10.7570595
-10.7540095
-10.7570595
-10.7540095
-10.7540095
-10.7555395
-10.7570595
-10.7540095
-10.7570595
-10.7540095
-10.7585895
-10.7570595
-10.7555395
-10.7555395
-10.7570595
-10.7555395
-10.7555395
-10.7601095
-10.7555395
-10.7524795
-10.7509595
-10.7524795
-10.7509595
-10.7555395
-10.7570595
-10.7570595
-10.7570595
-10.7555395
-10.7555395
-10.7570595
-10.7540095
-10.7585895
-10.7585895
-10.7540095
-10.7601095
-10.7631695
-10.7585895
-10.7601095
-10.7631695
-10.7616395
-10.7616395
-10.7601095
-10.7585895
-10.7616395
-10.7555395
-10.7585895
-10.7570595
-10.7585895
-10.7585895
-10.7585895
-10.7570595
-10.7585895
-10.7585895
-10.7570595
-10.7585895
-10.7570595
-10.7585895
-10.7555395
-10.7585895
-10.7601095
-10.7585895
-10.7601095
-10.7585895
-10.7585895
-10.7631695
-10.7585895
-10.7555395
-10.7662195
-10.7601095
-10.7570595
-10.7555395
-10.7555395
-10.7555395
-10.7555395
-10.7585895
-10.7540095
-10.7524795
-10.7524795
-10.7570595
-10.7509595
-10.7555395
-10.7555395
-10.7540095
-10.7555395
-10.7585895
-10.7570595
-10.7570595
-10.7570595
-10.7601095
-10.7601095
-10.7601095
-10.7601095
-10.7555395
-10.7570595
-10.7585895
-10.7601095
-10.7646895
-10.7707895
-10.7723195
-10.7707895
-10.7707895
-10.7723195
-10.7707895
-10.7646895
-10.7692695
-10.7677395
-10.7677395
-10.7631695
-10.7646895
-10.7646895
-10.7631695
-10.7662195
-10.7677395
-10.7662195
-10.7677395
-10.7707895
-10.7692695
-10.7768995
-10.7738495
-10.7723195
-10.7723195
-10.7707895
-10.7616395
-10.7570595
-10.7555395
-10.7540095
-10.7540095
-10.7524795
-10.7524795
-10.7540095
-10.7509595
-10.7509595
-10.7540095
-10.7540095
-10.7540095
-10.7524795
-10.7585895
-10.7585895
-10.7585895
-10.7570595
-10.7570595
-10.7616395
-10.7616395
-10.7646895
-10.7616395
-10.7646895
-10.7646895
-10.7646895
-10.7692695
-10.7646895
-10.7616395
-10.7631695
-10.7646895
-10.7601095
-10.7631695
-10.7601095
-10.7585895
-10.7585895
-10.7601095
-10.7585895
-10.7631695
-10.7616395
-10.7616395
-10.7555395
-10.7601095
-10.7616395
-10.7601095
-10.7646895
-10.7662195
-10.7677395
-10.7646895
-10.7646895
-10.7616395
-10.7585895
-10.7616395
-10.7585895
-10.7631695
-10.7616395
-10.7631695
-10.7585895
-10.7631695
-10.7601095
-10.7585895
-10.7524795
-10.7570595
-10.7540095
-10.7524795
-10.7570595
-10.7570595
-10.7555395
-10.7585895
-10.7585895
-10.7616395
-10.7646895
-10.7616395
-10.7616395
-10.7585895
-10.7601095
-10.7631695
-10.7616395
-10.7616395
-10.7616395
-10.7585895
-10.7616395
-10.7585895
-10.7585895
-10.7631695
-10.7631695
-10.7631695
-10.7631695
-10.7616395
-10.7601095
-10.7601095
-10.7555395
-10.7570595
-10.7631695
-10.7601095
-10.7616395
-10.7601095
-10.7631695
-10.7616395
-10.7616395
-10.7555395
-10.7570595
-10.7601095
-10.7570595
-10.7570595
-10.7601095
-10.7570595
-10.7601095
-10.7631695
-10.7601095
-10.7616395
-10.7585895
-10.7646895
-10.7631695
-10.7631695
-10.7601095
-10.7662195
-10.7601095
-10.7616395
-10.7616395
-10.7616395
-10.7646895
-10.7631695
-10.7631695
-10.7662195
-10.7707895
-10.7692695
-10.7677395
-10.7753695
-10.7753695
-10.7738495
-10.7738495
-10.7723195
-10.7723195
-10.7646895
-10.7662195
-10.7662195
-10.7631695
-10.7677395
-10.7646895
-10.7662195
-10.7616395
-10.7601095
-10.7616395
-10.7540095
-10.7540095
-10.7601095
-10.7646895
-10.7646895
-10.7631695
-10.7662195
-10.7677395
-10.7692695
-10.7646895
-10.7646895
-10.7662195
-10.7677395
-10.7616395
-10.7616395
-10.7585895
-10.7585895
-10.7616395
-10.7662195
-10.7692695
-10.7707895
-10.7707895
-10.7707895
-10.7662195
-10.7662195
-10.7646895
-10.7616395
-10.7601095
-10.7601095
-10.7631695
-10.7601095
-10.7585895
-10.7616395
-10.7585895
-10.7646895
-10.7631695
-10.7601095
-10.7616395
-10.7631695
-10.7616395
-10.7631695
-10.7646895
-10.7677395
-10.7646895
-10.7631695
-10.7616395
-10.7646895
-10.7631695
-10.7616395
-10.7631695
-10.7601095
-10.7616395
-10.7631695
-10.7631695
-10.7616395
-10.7601095
-10.7585895
-10.7570595
-10.7616395
-10.7585895
-10.7601095
-10.7601095
-10.7570595
-10.7540095
-10.7570595
-10.7585895
-10.7616395
-10.7646895
-10.7631695
-10.7662195
-10.7677395
-10.7677395
-10.7707895
-10.7707895
-10.7692695
-10.7707895
-10.7723195
-10.7707895
-10.7662195
-10.7646895
-10.7646895
-10.7677395
-10.7677395
-10.7631695
-10.7677395
-10.7723195
-10.7692695
-10.7662195
-10.7646895
-10.7601095
-10.7692695
-10.7616395
-10.7601095
-10.7616395
-10.7692695
-10.7677395
-10.7677395
-10.7662195
-10.7677395
-10.7692695
-10.7677395
-10.7692695
-10.7631695
-10.7646895
-10.7646895
-10.7646895
-10.7601095
-10.7646895
-10.7616395
-10.7662195
-10.7646895
-10.7555395
-10.7570595
-10.7601095
-10.7631695
-10.7646895
-10.7662195
-10.7662195
-10.7662195
-10.7646895
-10.7662195
-10.7677395
-10.7707895
-10.7692695
-10.7723195
-10.7723195
-10.7707895
-10.7662195
-10.7631695
-10.7616395
-10.7601095
-10.7646895
-10.7616395
-10.7570595
-10.7585895
-10.7570595
-10.7570595
-10.7555395
-10.7616395
-10.7616395
-10.7631695
-10.7662195
-10.7662195
-10.7646895
-10.7662195
-10.7692695
-10.7692695
-10.7616395
-10.7631695
-10.7677395
-10.7631695
-10.7662195
-10.7646895
-10.7677395
-10.7677395
-10.7677395
-10.7616395
-10.7631695
-10.7646895
-10.7631695
-10.7646895
-10.7570595
-10.7616395
-10.7570595
-10.7616395
-10.7631695
-10.7662195
-10.7707895
-10.7631695
-10.7616395
-10.7646895
-10.7677395
-10.7692695
-10.7662195
-10.7677395
-10.7692695
-10.7631695
-10.7631695
-10.7631695
-10.7631695
-10.7631695
-10.7677395
-10.7646895
-10.7646895
-10.7646895
-10.7662195
-10.7662195
-10.7601095
-10.7616395
-10.7616395
-10.7631695
-10.7646895
-10.7707895
-10.7707895
-10.7723195
-10.7723195
-10.7677395
-10.7677395
-10.7662195
-10.7631695
-10.7585895
-10.7601095
-10.7601095
-10.7631695
-10.7677395
-10.7662195
-10.7646895
-10.7662195
-10.7677395
-10.7677395
-10.7677395
-10.7692695
-10.7677395
-10.7662195
-10.7646895
-10.7631695
-10.7677395
-10.7692695
-10.7662195
-10.7631695
-10.7616395
-10.7601095
-10.7646895
-10.7646895
-10.7646895
-10.7662195
-10.7662195
-10.7646895
-10.7631695
-10.7662195
-10.7692695
-10.7692695
-10.7692695
-10.7707895
-10.7738495
-10.7707895
-10.7753695
-10.7738495
-10.7723195
-10.7707895
-10.7723195
-10.7707895
-10.7677395
-10.7662195
-10.7677395
-10.7677395
-10.7662195
-10.7631695
-10.7631695
-10.7631695
-10.7616395
-10.7631695
-10.7631695
-10.7692695
-10.7677395
-10.7707895
-10.7692695
-10.7707895
-10.7692695
-10.7707895
-10.7662195
-10.7601095
-10.7631695
-10.7631695
-10.7616395
-10.7585895
-10.7585895
-10.7601095
-10.7585895
-10.7631695
-10.7616395
-10.7646895
-10.7631695
-10.7646895
-10.7662195
-10.7677395
-10.7677395
-10.7677395
-10.7677395
-10.7677395
-10.7662195
-10.7692695
-10.7692695
-10.7677395
-10.7692695
-10.7677395
-10.7692695
-10.7662195
-10.7677395
-10.7601095
-10.7616395
-10.7616395
-10.7616395
-10.7585895
-10.7616395
-10.7646895
-10.7631695
-10.7646895
-10.7662195
-10.7692695
-10.7646895
-10.7646895
-10.7631695
-10.7646895
-10.7723195
-10.7723195
-10.7753695
-10.7723195
-10.7768995
-10.7723195
-10.7707895
-10.7677395
-10.7692695
-10.7707895
-10.7738495
-10.7707895
-10.7753695
-10.7753695
-10.7738495
-10.7738495
-10.7707895
-10.7677395
-10.7662195
-10.7646895
-10.7616395
-10.7662195
-10.7723195
-10.7738495
-10.7707895
-10.7723195
-10.7677395
-10.7677395
-10.7662195
-10.7555395
-10.7616395
-10.7631695
-10.7677395
-10.7662195
-10.7616395
-10.7631695
-10.7662195
-10.7707895
-10.7662195
-10.7692695
-10.7677395
-10.7677395
-10.7677395
-10.7662195
-10.7692695
-10.7692695
-10.7677395
-10.7707895
-10.7646895
-10.7707895
-10.7692695
-10.7738495
-10.7723195
-10.7677395
-10.7707895
-10.7738495
-10.7753695
-10.7692695
-10.7707895
-10.7677395
-10.7738495
-10.7707895
-10.7723195
-10.7707895
-10.7662195
-10.7662195
-10.7662195
-10.7677395
-10.7677395
-10.7707895
-10.7677395
-10.7662195
-10.7707895
-10.7692695
-10.7692695
-10.7707895
-10.7723195
-10.7707895
-10.7768995
-10.7738495
-10.7723195
-10.7723195
-10.7723195
-10.7707895
-10.7646895
-10.7707895
-10.7753695
-10.7723195
-10.7784195
-10.7738495
-10.7738495
-10.7784195
-10.7738495
-10.7738495
-10.7738495
-10.7692695
-10.7707895
-10.7707895
-10.7707895
-10.7707895
-10.7646895
-10.7646895
-10.7616395
-10.7616395
-10.7646895
-10.7677395
-10.7707895
-10.7662195
-10.7723195
-10.7692695
-10.7707895
-10.7707895
-10.7707895
-10.7707895
-10.7707895
-10.7723195
-10.7707895
-10.7723195
-10.7707895
-10.7723195
-10.7692695
-10.7707895
-10.7677395
-10.7723195
-10.7738495
-10.7677395
-10.7646895
-10.7646895
-10.7662195
-10.7692695
-10.7723195
-10.7738495
-10.7738495
-10.7707895
-10.7692695
-10.7692695
-10.7723195
-10.7662195
-10.7677395
-10.7692695
-10.7692695
-10.7707895
-10.7692695
-10.7753695
-10.7677395
-10.7707895
-10.7692695
-10.7723195
-10.7646895
-10.7692695
-10.7692695
-10.7707895
-10.7723195
-10.7723195
-10.7723195
-10.7738495
-10.7707895
-10.7646895
-10.7677395
-10.7692695
-10.7692695
-10.7677395
-10.7646895
-10.7662195
-10.7677395
-10.7707895
-10.7692695
-10.7707895
-10.7738495
-10.7723195
-10.7738495
-10.7753695
-10.7723195
-10.7738495
-10.7692695
-10.7738495
-10.7677395
-10.7692695
-10.7723195
-10.7738495
-10.7692695
-10.7692695
-10.7692695
-10.7677395
-10.7677395
-10.7646895
-10.7707895
-10.7646895
-10.7692695
-10.7677395
-10.7677395
-10.7723195
-10.7707895
-10.7738495
-10.7723195
-10.7677395
-10.7677395
-10.7692695
-10.7723195
-10.7692695
-10.7723195
-10.7723195
-10.7692695
-10.7707895
-10.7707895
-10.7723195
-10.7738495
-10.7692695
-10.7692695
-10.7631695
-10.7677395
-10.7677395
-10.7631695
-10.7662195
-10.7692695
-10.7723195
-10.7723195
-10.7707895
-10.7707895
-10.7677395
-10.7738495
-10.7738495
-10.7738495
-10.7707895
-10.7738495
-10.7723195
-10.7738495
-10.7738495
-10.7768995
-10.7738495
-10.7707895
-10.7723195
-10.7753695
-10.7723195
-10.7723195
-10.7738495
-10.7768995
-10.7753695
-10.7753695
-10.7753695
-10.7723195
-10.7723195
-10.7723195
-10.7738495
-10.7723195
-10.7738495
-10.7784195
-10.7768995
-10.7738495
-10.7692695
-10.7662195
-10.7677395
-10.7707895
-10.7753695
-10.7723195
-10.7646895
-10.7631695
-10.7631695
-10.7677395
-10.7692695
-10.7753695
-10.7723195
-10.7723195
-10.7753695
-10.7692695
-10.7707895
-10.7753695
-10.7814795
-10.7768995
-10.7829995
-10.7860495
-10.7829995
-10.7875795
-10.7891095
-10.7891095
-10.7860495
-10.7860495
-10.7860495
-10.7829995
-10.7829995
-10.7784195
-10.7784195
-10.7768995
-10.7723195
-10.7738495
-10.7707895
-10.7768995
-10.7753695
-10.7738495
-10.7738495
-10.7738495
-10.7753695
-10.7753695
-10.7814795
-10.7845295
-10.7860495
-10.7784195
-10.7784195
-10.7829995
-10.7784195
-10.7753695
-10.7753695
-10.7738495
-10.7738495
-10.7753695
-10.7707895
-10.7738495
-10.7723195
-10.7738495
-10.7753695
-10.7738495
-10.7768995
-10.7814795
-10.7829995
-10.7784195
-10.7768995
-10.7784195
-10.7784195
-10.7768995
-10.7829995
-10.7814795
-10.7829995
-10.7829995
-10.7829995
-10.7784195
-10.7784195
-10.7768995
-10.7677395
-10.7646895
-10.7662195
-10.7692695
-10.7723195
-10.7723195
-10.7707895
-10.7753695
-10.7723195
-10.7753695
-10.7784195
-10.7753695
-10.7738495
-10.7753695
-10.7784195
-10.7753695
-10.7753695
-10.7707895
-10.7723195
-10.7738495
-10.7768995
-10.7784195
-10.7784195
-10.7814795
-10.7845295
-10.7829995
-10.7814795
-10.7814795
-10.7814795
-10.7814795
-10.7768995
-10.7829995
-10.7768995
-10.7753695
-10.7738495
-10.7753695
-10.7768995
-10.7784195
-10.7784195
-10.7784195
-10.7784195
-10.7738495
-10.7768995
-10.7784195
-10.7829995
-10.7829995
-10.7814795
-10.7784195
-10.7829995
-10.7784195
-10.7814795
-10.7845295
-10.7784195
-10.7829995
-10.7829995
-10.7860495
-10.7814795
-10.7814795
-10.7814795
-10.7768995
-10.7845295
-10.7845295
-10.7875795
-10.7875795
-10.7860495
-10.7845295
-10.7860495
-10.7829995
-10.7814795
-10.7814795
-10.7784195
-10.7768995
-10.7768995
-10.7784195
-10.7860495
-10.7875795
-10.7829995
-10.7875795
-10.7784195
-10.7768995
-10.7814795
-10.7768995
-10.7753695
-10.7814795
-10.7784195
-10.7814795
-10.7814795
-10.7814795
-10.7768995
-10.7753695
-10.7768995
-10.7707895
-10.7784195
-10.7814795
-10.7845295
-10.7875795
-10.7891095
-10.7906295
-10.7921595
-10.7891095
-10.7875795
-10.7845295
-10.7768995
-10.7829995
-10.7784195
-10.7753695
-10.7768995
-10.7845295
-10.7814795
-10.7829995
-10.7860495
-10.7845295
-10.7814795
-10.7845295
-10.7814795
-10.7829995
-10.7845295
-10.7814795
-10.7814795
-10.7875795
-10.7860495
-10.7860495
-10.7906295
-10.7906295
-10.7921595
-10.7875795
-10.7829995
-10.7829995
-10.7814795
-10.7814795
-10.7738495
-10.7814795
-10.7829995
-10.7829995
-10.7829995
-10.7875795
-10.7875795
-10.7860495
-10.7784195
-10.7784195
-10.7814795
-10.7784195
-10.7768995
-10.7829995
-10.7829995
-10.7814795
-10.7860495
-10.7845295
-10.7860495
-10.7845295
-10.7891095
-10.7860495
-10.7875795
-10.7936795
-10.7936795
-10.7936795
-10.7921595
-10.7891095
-10.7891095
-10.7875795
-10.7845295
-10.7845295
-10.7845295
-10.7845295
-10.7860495
-10.7845295
-10.7906295
-10.7845295
-10.7860495
-10.7829995
-10.7875795
-10.7829995
-10.7860495
-10.7860495
-10.7891095
-10.7891095
-10.7891095
-10.7875795
-10.7860495
-10.7891095
-10.7875795
-10.7891095
-10.7936795
-10.7952095
-10.7952095
-10.7952095
-10.8013095
-10.7952095
-10.7829995
-10.7784195
-10.7860495
-10.7829995
-10.7829995
-10.7860495
-10.7891095
-10.7906295
-10.7906295
-10.7860495
-10.7875795
-10.7845295
-10.7784195
-10.7829995
-10.7814795
-10.7845295
-10.7860495
-10.7875795
-10.7875795
-10.7845295
-10.7860495
-10.7845295
-10.7829995
-10.7814795
-10.7860495
-10.7845295
-10.7845295
-10.7829995
-10.7891095
-10.7860495
-10.7875795
-10.7829995
-10.7860495
-10.7952095
-10.7936795
-10.7891095
-10.7921595
-10.7875795
-10.7891095
-10.7875795
-10.7814795
-10.7845295
-10.7829995
-10.7784195
-10.7814795
-10.7784195
-10.7784195
-10.7784195
-10.7829995
-10.7829995
-10.7860495
-10.7845295
-10.7845295
-10.7845295
-10.7906295
-10.7891095
-10.7921595
-10.7860495
-10.7875795
-10.7829995
-10.7829995
-10.7814795
-10.7814795
-10.7829995
-10.7875795
-10.7845295
-10.7829995
-10.7845295
-10.7784195
-10.7768995
-10.7784195
-10.7814795
-10.7814795
-10.7829995
-10.7768995
-10.7829995
-10.7784195
-10.7814795
-10.7860495
-10.7784195
-10.7829995
-10.7845295
-10.7845295
-10.7845295
-10.7829995
-10.7845295
-10.7921595
-10.7875795
-10.7875795
-10.7891095
-10.7875795
-10.7906295
-10.7875795
-10.7814795
-10.7829995
-10.7860495
-10.7784195
-10.7814795
-10.7768995
-10.7753695
-10.7738495
-10.7784195
-10.7829995
-10.7784195
-10.7845295
-10.7875795
-10.7875795
-10.7875795
-10.7891095
-10.7891095
-10.7906295
-10.7829995
-10.7814795
-10.7845295
-10.7814795
-10.7814795
-10.7814795
-10.7845295
-10.7829995
-10.7814795
-10.7860495
-10.7845295
-10.7829995
-10.7784195
-10.7845295
-10.7875795
-10.7860495
-10.7891095
-10.7875795
-10.7860495
-10.7891095
-10.7814795
-10.7829995
-10.7829995
-10.7814795
-10.7814795
-10.7860495
-10.7784195
-10.7829995
-10.7860495
-10.7829995
-10.7829995
-10.7829995
-10.7860495
-10.7814795
-10.7814795
-10.7814795
-10.7814795
-10.7860495
-10.7784195
-10.7860495
-10.7845295
-10.7860495
-10.7784195
-10.7814795
-10.7829995
-10.7814795
-10.7860495
-10.7738495
-10.7784195
-10.7829995
-10.7784195
-10.7845295
-10.7875795
-10.7829995
-10.7860495
-10.7784195
-10.7829995
-10.7753695
-10.7784195
-10.7768995
-10.7860495
-10.7860495
-10.7845295
-10.7814795
-10.7829995
-10.7753695
-10.7784195
-10.7860495
-10.7829995
-10.7829995
-10.7814795
-10.7845295
-10.7860495
-10.7829995
-10.7829995
-10.7891095
-10.7829995
-10.7845295
-10.7845295
-10.7814795
-10.7829995
-10.7860495
-10.7891095
-10.7875795
-10.7891095
-10.7875795
-10.7845295
-10.7845295
-10.7845295
-10.7845295
-10.7814795
-10.7814795
-10.7784195
-10.7784195
-10.7845295
-10.7829995
-10.7891095
-10.7891095
-10.7906295
-10.7891095
-10.7875795
-10.7891095
-10.7860495
-10.7829995
-10.7891095
-10.7875795
-10.7860495
-10.7829995
-10.7845295
-10.7814795
-10.7829995
-10.7829995
-10.7784195
-10.7829995
-10.7829995
-10.7829995
-10.7814795
-10.7784195
-10.7829995
-10.7875795
-10.7845295
-10.7845295
-10.7875795
-10.7860495
-10.7891095
-10.7982595
-10.7952095
-10.7952095
-10.7952095
-10.7875795
-10.7875795
-10.7829995
-10.7891095
-10.7891095
-10.7906295
-10.7845295
-10.7829995
-10.7829995
-10.7814795
-10.7829995
-10.7768995
-10.7814795
-10.7784195
-10.7753695
-10.7753695
-10.7814795
-10.7814795
-10.7814795
-10.7784195
-10.7784195
-10.7784195
-10.7784195
-10.7829995
-10.7768995
-10.7829995
-10.7860495
-10.7829995
-10.7768995
-10.7829995
-10.7845295
-10.7845295
-10.7860495
-10.7829995
-10.7829995
-10.7860495
-10.7860495
-10.7860495
-10.7860495
-10.7845295
-10.7829995
-10.7768995
-10.7829995
-10.7829995
-10.7784195
-10.7814795
-10.7875795
-10.7829995
-10.7814795
-10.7784195
-10.7829995
-10.7860495
-10.7814795
-10.7814795
-10.7829995
-10.7845295
-10.7829995
-10.7875795
-10.7875795
-10.7860495
-10.7875795
-10.7875795
-10.7860495
-10.7891095
-10.7891095
-10.7860495
-10.7891095
-10.7906295
-10.7906295
-10.7906295
-10.7906295
-10.7860495
-10.7875795
-10.7860495
-10.7829995
-10.7814795
-10.7829995
-10.7860495
-10.7784195
-10.7784195
-10.7829995
-10.7784195
-10.7860495
-10.7860495
-10.7860495
-10.7860495
-10.7860495
-10.7814795
-10.7784195
-10.7845295
-10.7860495
-10.7845295
-10.7845295
-10.7784195
-10.7784195
-10.7768995
-10.7860495
-10.7814795
-10.7829995
-10.7829995
-10.7829995
-10.7860495
-10.7860495
-10.7845295
-10.7860495
-10.7875795
-10.7875795
-10.7860495
-10.7860495
-10.7875795
-10.7875795
-10.7891095
-10.7906295
-10.7906295
-10.7891095
-10.7845295
-10.7875795
-10.7891095
-10.7921595
-10.7936795
-10.7921595
-10.7875795
-10.7875795
-10.7875795
-10.7829995
-10.7814795
-10.7845295
-10.7784195
-10.7829995
-10.7784195
-10.7875795
-10.7814795
-10.7814795
-10.7845295
-10.7875795
-10.7875795
-10.7845295
-10.7891095
-10.7891095
-10.7891095
-10.7875795
-10.7814795
-10.7860495
-10.7829995
-10.7875795
-10.7891095
-10.7921595
-10.7860495
-10.7768995
-10.7814795
-10.7829995
-10.7921595
-10.7875795
-10.7906295
-10.7860495
-10.7860495
-10.7860495
-10.7860495
-10.7829995
-10.7829995
-10.7814795
-10.7829995
-10.7875795
-10.7829995
-10.7845295
-10.7829995
-10.7845295
-10.7845295
-10.7845295
-10.7860495
-10.7906295
-10.7875795
-10.7906295
-10.7936795
-10.7906295
-10.7936795
-10.7891095
-10.7936795
-10.7906295
-10.7891095
-10.7875795
-10.7906295
-10.7921595
-10.7875795
-10.7875795
-10.7891095
-10.7891095
-10.7875795
-10.7891095
-10.7860495
-10.7860495
-10.7875795
-10.7875795
-10.7875795
-10.7875795
-10.7936795
-10.7921595
-10.7906295
-10.7875795
-10.7875795
-10.7875795
-10.7875795
-10.7875795
-10.7906295
-10.7906295
-10.7875795
-10.7845295
-10.7875795
-10.7875795
-10.7875795
-10.7829995
-10.7784195
-10.7845295
-10.7829995
-10.7845295
-10.7829995
-10.7875795
-10.7906295
-10.7936795
-10.7936795
-10.7891095
-10.7891095
-10.7952095
-10.7967295
-10.7875795
-10.7845295
-10.7860495
-10.7875795
-10.7845295
-10.7860495
-10.7845295
-10.7860495
-10.7875795
-10.7860495
-10.7829995
-10.7829995
-10.7829995
-10.7814795
-10.7829995
-10.7784195
-10.7829995
-10.7784195
-10.7845295
-10.7829995
-10.7845295
-10.7891095
-10.7891095
-10.7845295
-10.7829995
-10.7845295
-10.7860495
-10.7860495
-10.7891095
-10.7891095
-10.7906295
-10.7906295
-10.7891095
-10.7921595
-10.7906295
-10.7906295
-10.7936795
-10.7936795
-10.7936795
-10.7921595
-10.7952095
-10.7936795
-10.7967295
-10.7952095
-10.7997895
-10.7982595
-10.7997895
-10.7936795
-10.7982595
-10.7982595
-10.7967295
-10.7967295
-10.7936795
-10.7936795
-10.7906295
-10.7906295
-10.7829995
-10.7829995
-10.7860495
-10.7875795
-10.7891095
-10.7891095
-10.7921595
-10.7906295
-10.7936795
-10.7906295
-10.7829995
-10.7845295
-10.7860495
-10.7845295
-10.7814795
-10.7860495
-10.7860495
-10.7845295
-10.7845295
-10.7845295
-10.7845295
-10.7845295
-10.7829995
-10.7875795
-10.7860495
-10.7845295
-10.7738495
-10.7768995
-10.7768995
-10.7707895
-10.7768995
-10.7784195
-10.7814795
-10.7845295
-10.7845295
-10.7860495
-10.7860495
-10.7875795
-10.7891095
-10.7891095
-10.7891095
-10.7860495
-10.7860495
-10.7891095
-10.7875795
-10.7921595
-10.7906295
-10.7952095
-10.7891095
-10.7906295
-10.7875795
-10.7875795
-10.7906295
-10.7891095
-10.7891095
-10.7891095
-10.7906295
-10.7906295
-10.7875795
-10.7860495
-10.7891095
-10.7891095
-10.7906295
-10.7875795
-10.7875795
-10.7906295
-10.7921595
-10.7860495
-10.7845295
-10.7875795
-10.7860495
-10.7829995
-10.7845295
-10.7875795
-10.7814795
-10.7875795
-10.7845295
-10.7875795
-10.7891095
-10.7845295
-10.7860495
-10.7875795
-10.7906295
-10.7921595
-10.7906295
-10.7875795
-10.7875795
-10.7891095
-10.7860495
-10.7860495
-10.7875795
-10.7845295
-10.7921595
-10.7921595
-10.7875795
-10.7860495
-10.7891095
-10.7921595
-10.7906295
-10.7936795
-10.7906295
-10.7921595
-10.7921595
-10.7906295
-10.7921595
-10.7936795
-10.7921595
-10.7891095
-10.7921595
-10.7906295
-10.7891095
-10.7952095
-10.7982595
-10.7921595
-10.7982595
-10.7952095
-10.7982595
-10.7936795
-10.7906295
-10.7906295
-10.7814795
-10.7845295
-10.7829995
-10.7845295
-10.7875795
-10.7875795
-10.7860495
-10.7875795
-10.7921595
-10.7891095
-10.7845295
-10.7845295
-10.7891095
-10.7875795
-10.7875795
-10.7906295
-10.7936795
-10.7906295
-10.7906295
-10.7860495
-10.7891095
-10.7875795
-10.7921595
-10.7875795
-10.7875795
-10.7860495
-10.7891095
-10.7936795
-10.7906295
-10.7906295
-10.7906295
-10.7936795
-10.7921595
-10.7921595
-10.7936795
-10.7967295
-10.7936795
-10.7891095
-10.7921595
-10.7906295
-10.7891095
-10.7891095
-10.7829995
-10.7784195
-10.7845295
-10.7875795
-10.7921595
-10.7906295
-10.7906295
-10.7891095
-10.7906295
-10.7891095
-10.7891095
-10.7875795
-10.7860495
-10.7875795
-10.7906295
-10.7860495
-10.7860495
-10.7906295
-10.7906295
-10.7891095
-10.7906295
-10.7891095
-10.7891095
-10.7875795
-10.7891095
-10.7875795
-10.7906295
-10.7891095
-10.7891095
-10.7860495
-10.7891095
-10.7891095
-10.7845295
-10.7891095
-10.7891095
-10.7906295
-10.7906295
-10.7875795
-10.7875795
-10.7921595
-10.7891095
-10.7952095
-10.7936795
-10.7952095
-10.7952095
-10.7936795
-10.7936795
-10.7936795
-10.7921595
-10.7921595
-10.7952095
-10.7952095
-10.7906295
-10.7952095
-10.7997895
-10.7952095
-10.7936795
-10.7952095
-10.7906295
-10.7906295
-10.7891095
-10.7921595
-10.7906295
-10.7936795
-10.7891095
-10.7921595
-10.7906295
-10.7906295
-10.7875795
-10.7921595
-10.7906295
-10.7860495
-10.7967295
-10.7967295
-10.7936795
-10.7936795
-10.7952095
-10.7967295
-10.7860495
-10.7875795
-10.7875795
-10.7875795
-10.7875795
-10.7860495
-10.7860495
-10.7906295
-10.7921595
-10.7906295
-10.7891095
-10.7891095
-10.7936795
-10.7921595
-10.7891095
-10.7921595
-10.7921595
-10.7891095
-10.7921595
-10.7860495
-10.7845295
-10.7891095
-10.7891095
-10.7906295
-10.7906295
-10.7952095
-10.7997895
-10.7997895
-10.7982595
-10.7997895
-10.7982595
-10.7967295
-10.7997895
-10.8028395
-10.7982595
-10.8028395
-10.8043595
-10.8013095
-10.7952095
-10.7875795
-10.7921595
-10.7936795
-10.7982595
-10.7967295
-10.7982595
-10.7952095
-10.7921595
-10.7875795
-10.7906295
-10.7952095
-10.7952095
-10.7921595
-10.7921595
-10.7952095
-10.7936795
-10.7982595
-10.7921595
-10.7967295
-10.7906295
-10.7921595
-10.7891095
-10.7936795
-10.7952095
-10.7921595
-10.7921595
-10.7936795
-10.7936795
-10.7921595
-10.7936795
-10.7936795
-10.7967295
-10.7967295
-10.7936795
-10.7952095
-10.7952095
-10.7952095
-10.7967295
-10.7936795
-10.7936795
-10.7967295
-10.7967295
-10.7982595
-10.7936795
-10.7967295
-10.7936795
-10.7952095
-10.7967295
-10.7952095
-10.7982595
-10.7952095
-10.7952095
-10.8013095
-10.7997895
-10.7982595
-10.7997895
-10.7982595
-10.7967295
-10.7936795
-10.8013095
-10.8013095
-10.7997895
-10.7982595
-10.8028395
-10.8028395
-10.8089395
-10.8028395
-10.8013095
-10.8089395
-10.8028395
-10.7997895
-10.8043595
-10.8013095
-10.8058895
-10.7997895
-10.7997895
-10.7997895
-10.8013095
-10.7952095
-10.7936795
-10.7906295
-10.7967295
-10.7967295
-10.7967295
-10.7982595
-10.7967295
-10.7967295
-10.7997895
-10.7952095
-10.7982595
-10.8043595
-10.8028395
-10.7997895
-10.7982595
-10.7982595
-10.8013095
-10.7997895
-10.8013095
-10.7997895
-10.7997895
-10.7997895
-10.7997895
-10.7982595
-10.7952095
-10.7906295
-10.7936795
-10.7936795
-10.7997895
-10.7952095
-10.7997895
-10.8058895
-10.8028395
-10.8013095
-10.8013095
-10.7982595
-10.7952095
-10.7982595
-10.7967295
-10.7997895
-10.7936795
-10.7997895
-10.7982595
-10.8013095
-10.7997895
-10.8028395
-10.8013095
-10.7997895
-10.8028395
-10.7997895
-10.7967295
-10.7952095
-10.7967295
-10.8013095
-10.8043595
-10.8013095
-10.7982595
-10.7982595
-10.8028395
-10.7982595
-10.7982595
-10.7997895
-10.8028395
-10.7997895
-10.7967295
-10.8013095
-10.7997895
-10.8058895
-10.8043595
-10.8013095
-10.8074195
-10.8074195
-10.8058895
-10.7967295
-10.7967295
-10.7936795
-10.7952095
-10.7921595
-10.7952095
-10.7952095
-10.7936795
-10.7982595
-10.7982595
-10.7936795
-10.7952095
-10.7952095
-10.7921595
-10.7982595
-10.7967295
-10.8013095
-10.7997895
-10.8013095
-10.8013095
-10.8013095
-10.7997895
-10.8043595
-10.8013095
-10.7952095
-10.7982595
-10.7997895
-10.8013095
-10.8013095
-10.7967295
-10.7906295
-10.7906295
-10.7967295
-10.7936795
-10.7982595
-10.7997895
-10.7982595
-10.7997895
-10.7982595
-10.7967295
-10.7997895
-10.7982595
-10.7997895
-10.8028395
-10.8058895
-10.8074195
-10.8028395
-10.8043595
-10.8058895
-10.8104695
-10.8104695
-10.8058895
-10.8058895
-10.8043595
-10.8089395
-10.8104695
-10.8074195
-10.8074195
-10.8089395
-10.8089395
-10.8089395
-10.8058895
-10.8043595
-10.7997895
-10.8043595
-10.8058895
-10.8089395
-10.8074195
-10.8058895
-10.8028395
-10.8013095
-10.8043595
-10.8043595
-10.8074195
-10.8028395
-10.8028395
-10.7997895
-10.7997895
-10.7982595
-10.7982595
-10.8028395
-10.8028395
-10.8043595
-10.8013095
-10.8043595
-10.8013095
-10.8028395
-10.8058895
-10.8058895
-10.8058895
-10.8074195
-10.8028395
-10.8043595
-10.8089395
-10.8043595
-10.8074195
-10.8058895
-10.8058895
-10.8043595
-10.8013095
-10.8013095
-10.8028395
-10.8043595
-10.8043595
-10.8028395
-10.8074195
-10.8058895
-10.8043595
-10.8058895
-10.8058895
-10.8058895
-10.8074195
-10.8074195
-10.8043595
-10.8089395
-10.8074195
-10.8089395
-10.8074195
-10.8074195
-10.8043595
-10.8074195
-10.8043595
-10.8043595
-10.8043595
-10.7997895
-10.8028395
-10.8028395
-10.8043595
-10.8028395
-10.8058895
-10.8089395
-10.8058895
-10.8104695
-10.8104695
-10.8135195
-10.8135195
-10.8074195
-10.8089395
-10.8089395
-10.8089395
-10.8104695
-10.8074195
-10.8074195
-10.8074195
-10.8074195
-10.8089395
-10.8150495
-10.8135195
-10.8104695
-10.8104695
-10.8074195
-10.8104695
-10.8043595
-10.8028395
-10.8074195
-10.8058895
-10.8043595
-10.8028395
-10.8074195
-10.8058895
-10.8074195
-10.8013095
-10.8028395
-10.7952095
-10.7982595
-10.7997895
-10.7982595
-10.8028395
-10.8043595
-10.8074195
-10.8104695
-10.8089395
-10.8135195
-10.8074195
-10.8074195
-10.8089395
-10.8089395
-10.8104695
-10.8089395
-10.8104695
-10.8089395
-10.8211495
-10.8180995
-10.8180995
-10.8211495
-10.8150495
-10.8135195
-10.8135195
-10.8150495
-10.8135195
-10.8104695
-10.8089395
-10.8089395
-10.8058895
-10.8043595
-10.8074195
-10.8074195
-10.8104695
-10.8089395
-10.8089395
-10.8028395
-10.8074195
-10.8028395
-10.8043595
-10.8043595
-10.8058895
-10.8089395
-10.8058895
-10.8074195
-10.8074195
-10.8043595
-10.8074195
-10.8058895
-10.8028395
-10.8074195
-10.8058895
-10.8074195
-10.8089395
-10.8074195
-10.8089395
-10.8058895
-10.8058895
-10.8089395
-10.8074195
-10.8074195
-10.8104695
-10.8104695
-10.8150495
-10.8135195
-10.8135195
-10.8165695
-10.8165695
-10.8180995
-10.8135195
-10.8150495
-10.8150495
-10.8104695
-10.8074195
-10.8135195
-10.8089395
-10.8150495
-10.8104695
-10.8104695
-10.8074195
-10.8089395
-10.8104695
-10.8135195
-10.8135195
-10.8135195
-10.8150495
-10.8104695
-10.8135195
-10.8135195
-10.8150495
-10.8150495
-10.8104695
-10.8074195
-10.8074195
-10.8104695
-10.8074195
-10.8104695
-10.8104695
-10.8150495
-10.8104695
-10.8104695
-10.8135195
-10.8196195
-10.8165695
-10.8165695
-10.8226695
-10.8196195
-10.8226695
-10.8180995
-10.8196195
-10.8196195
-10.8241995
-10.8211495
-10.8226695
-10.8196195
-10.8165695
-10.8165695
-10.8165695
-10.8211495
-10.8196195
-10.8226695
-10.8180995
-10.8211495
-10.8196195
-10.8241995
-10.8211495
-10.8241995
-10.8180995
-10.8241995
-10.8180995
-10.8180995
-10.8180995
-10.8165695
-10.8196195
-10.8211495
-10.8272495
-10.8226695
-10.8226695
-10.8211495
-10.8196195
-10.8211495
-10.8211495
-10.8196195
-10.8196195
-10.8226695
-10.8196195
-10.8211495
-10.8211495
-10.8241995
-10.8226695
-10.8226695
-10.8241995
-10.8272495
-10.8272495
-10.8180995
-10.8211495
-10.8196195
-10.8196195
-10.8211495
-10.8211495
-10.8150495
-10.8196195
-10.8165695
-10.8196195
-10.8165695
-10.8180995
-10.8180995
-10.8165695
-10.8211495
-10.8180995
-10.8226695
-10.8165695
-10.8180995
-10.8165695
-10.8165695
-10.8165695
-10.8165695
-10.8165695
-10.8196195
-10.8180995
-10.8211495
-10.8196195
-10.8226695
-10.8226695
-10.8211495
-10.8272495
-10.8257295
-10.8241995
-10.8226695
-10.8272495
-10.8257295
-10.8287795
-10.8287795
-10.8287795
-10.8287795
-10.8241995
-10.8257295
-10.8287795
-10.8241995
-10.8241995
-10.8226695
-10.8226695
-10.8211495
-10.8211495
-10.8226695
-10.8226695
-10.8226695
-10.8226695
-10.8211495
-10.8226695
-10.8180995
-10.8196195
-10.8211495
-10.8180995
-10.8165695
-10.8180995
-10.8211495
-10.8196195
-10.8180995
-10.8180995
-10.8196195
-10.8226695
-10.8165695
-10.8180995
-10.8196195
-10.8165695
-10.8180995
-10.8211495
-10.8211495
-10.8180995
-10.8226695
-10.8196195
-10.8211495
-10.8211495
-10.8211495
-10.8226695
-10.8211495
-10.8196195
-10.8196195
-10.8196195
-10.8211495
-10.8211495
-10.8211495
-10.8180995
-10.8196195
-10.8226695
-10.8226695
-10.8226695
-10.8241995
-10.8226695
-10.8272495
-10.8272495
-10.8257295
-10.8257295
-10.8226695
-10.8226695
-10.8272495
-10.8302995
-10.8272495
-10.8272495
-10.8226695
-10.8272495
-10.8241995
-10.8272495
-10.8257295
-10.8226695
-10.8257295
-10.8257295
-10.8257295
-10.8241995
-10.8272495
-10.8180995
-10.8287795
-10.8257295
-10.8272495
-10.8302995
-10.8272495
-10.8287795
-10.8272495
-10.8318295
-10.8287795
-10.8318295
-10.8287795
-10.8318295
-10.8302995
-10.8302995
-10.8318295
-10.8333595
-10.8257295
-10.8272495
-10.8272495
-10.8257295
-10.8287795
-10.8287795
-10.8318295
-10.8272495
-10.8302995
-10.8318295
-10.8318295
-10.8318295
-10.8333595
-10.8287795
-10.8318295
-10.8348795
-10.8348795
-10.8364095
-10.8364095
-10.8348795
-10.8348795
-10.8379295
-10.8333595
-10.8348795
-10.8333595
-10.8379295
-10.8364095
-10.8348795
-10.8333595
-10.8364095
-10.8333595
-10.8348795
-10.8333595
-10.8302995
-10.8302995
-10.8257295
-10.8287795
-10.8302995
-10.8302995
-10.8318295
-10.8302995
-10.8302995
-10.8333595
-10.8318295
-10.8287795
-10.8318295
-10.8348795
-10.8348795
-10.8348795
-10.8379295
-10.8379295
-10.8379295
-10.8364095
-10.8348795
-10.8348795
-10.8364095
-10.8409895
-10.8379295
-10.8440395
-10.8394595
-10.8394595
-10.8364095
-10.8364095
-10.8379295
-10.8364095
-10.8394595
-10.8364095
-10.8409895
-10.8333595
-10.8409895
-10.8364095
-10.8379295
-10.8379295
-10.8440395
-10.8409895
-10.8440395
-10.8440395
-10.8394595
-10.8409895
-10.8409895
-10.8394595
-10.8394595
-10.8409895
-10.8379295
-10.8409895
-10.8379295
-10.8409895
-10.8333595
-10.8394595
-10.8333595
-10.8394595
-10.8379295
-10.8379295
-10.8440395
-10.8409895
-10.8394595
-10.8394595
-10.8409895
-10.8379295
-10.8348795
-10.8364095
-10.8379295
-10.8409895
-10.8455595
-10.8409895
-10.8440395
-10.8440395
-10.8409895
-10.8470895
-10.8455595
-10.8394595
-10.8455595
-10.8470895
-10.8409895
-10.8379295
-10.8364095
-10.8364095
-10.8364095
-10.8364095
-10.8409895
-10.8379295
-10.8394595
-10.8379295
-10.8394595
-10.8409895
-10.8394595
-10.8409895
-10.8409895
-10.8455595
-10.8470895
-10.8470895
-10.8470895
-10.8455595
-10.8455595
-10.8440395
-10.8409895
-10.8455595
-10.8409895
-10.8440395
-10.8440395
-10.8409895
-10.8409895
-10.8394595
-10.8409895
-10.8440395
-10.8470895
-10.8409895
-10.8409895
-10.8394595
-10.8409895
-10.8409895
-10.8409895
-10.8440395
-10.8470895
-10.8455595
-10.8394595
-10.8409895
-10.8409895
-10.8409895
-10.8455595
-10.8455595
-10.8470895
-10.8486095
-10.8470895
-10.8409895
-10.8379295
-10.8394595
-10.8379295
-10.8348795
-10.8409895
-10.8470895
-10.8440395
-10.8394595
-10.8394595
-10.8394595
-10.8455595
-10.8409895
-10.8379295
-10.8379295
-10.8409895
-10.8348795
-10.8409895
-10.8409895
-10.8470895
-10.8455595
-10.8470895
-10.8470895
-10.8501395
-10.8486095
-10.8470895
-10.8486095
-10.8440395
-10.8440395
-10.8364095
-10.8440395
-10.8394595
-10.8394595
-10.8394595
-10.8348795
-10.8379295
-10.8333595
-10.8333595
-10.8379295
-10.8348795
-10.8333595
-10.8379295
-10.8394595
-10.8379295
-10.8409895
-10.8470895
-10.8440395
-10.8440395
-10.8470895
-10.8455595
-10.8455595
-10.8455595
-10.8486095
-10.8470895
-10.8455595
-10.8455595
-10.8440395
-10.8409895
-10.8409895
-10.8486095
-10.8501395
-10.8486095
-10.8470895
-10.8455595
-10.8470895
-10.8455595
-10.8455595
-10.8455595
-10.8470895
-10.8409895
-10.8455595
-10.8394595
-10.8394595
-10.8364095
-10.8333595
-10.8379295
-10.8394595
-10.8394595
-10.8409895
-10.8440395
-10.8440395
-10.8455595
-10.8440395
-10.8470895
-10.8455595
-10.8409895
-10.8379295
-10.8409895
-10.8379295
-10.8409895
-10.8455595
-10.8501395
-10.8440395
-10.8409895
-10.8455595
-10.8440395
-10.8455595
-10.8470895
-10.8501395
-10.8516695
-10.8516695
-10.8501395
-10.8486095
-10.8531895
-10.8547195
-10.8531895
-10.8455595
-10.8455595
-10.8470895
-10.8516695
-10.8516695
-10.8531895
-10.8516695
-10.8486095
-10.8470895
-10.8455595
-10.8379295
-10.8440395
-10.8501395
-10.8470895
-10.8501395
-10.8486095
-10.8455595
-10.8455595
-10.8440395
-10.8455595
-10.8501395
-10.8486095
-10.8486095
-10.8516695
-10.8501395
-10.8531895
-10.8501395
-10.8516695
-10.8486095
-10.8455595
-10.8470895
-10.8455595
-10.8486095
-10.8486095
-10.8501395
-10.8501395
-10.8470895
-10.8501395
-10.8531895
-10.8501395
-10.8516695
-10.8486095
-10.8501395
-10.8531895
-10.8501395
-10.8486095
-10.8516695
-10.8516695
-10.8531895
-10.8501395
-10.8516695
-10.8470895
-10.8455595
-10.8486095
-10.8409895
-10.8440395
-10.8455595
-10.8486095
-10.8501395
-10.8501395
-10.8486095
-10.8486095
-10.8516695
-10.8440395
-10.8486095
-10.8501395
-10.8516695
-10.8516695
-10.8486095
-10.8455595
-10.8470895
-10.8440395
-10.8486095
-10.8501395
-10.8516695
-10.8531895
-10.8562395
-10.8592995
-10.8547195
-10.8531895
-10.8486095
-10.8486095
-10.8486095
-10.8409895
-10.8470895
-10.8531895
-10.8531895
-10.8501395
-10.8501395
-10.8501395
-10.8516695
-10.8501395
-10.8562395
-10.8531895
-10.8547195
-10.8501395
-10.8516695
-10.8409895
-10.8379295
-10.8486095
-10.8455595
-10.8455595
-10.8516695
-10.8531895
-10.8486095
-10.8501395
-10.8516695
-10.8486095
-10.8562395
-10.8562395
-10.8516695
-10.8501395
-10.8531895
-10.8501395
-10.8516695
-10.8547195
-10.8592995
-10.8547195
-10.8547195
-10.8516695
-10.8562395
-10.8486095
-10.8501395
-10.8516695
-10.8516695
-10.8547195
-10.8516695
-10.8516695
-10.8501395
-10.8516695
-10.8486095
-10.8501395
-10.8531895
-10.8531895
-10.8547195
-10.8531895
-10.8501395
-10.8516695
-10.8531895
-10.8486095
-10.8547195
-10.8577695
-10.8531895
-10.8516695
-10.8516695
-10.8562395
-10.8592995
-10.8592995
-10.8531895
-10.8577695
-10.8592995
-10.8547195
-10.8547195
-10.8577695
-10.8547195
-10.8516695
-10.8547195
-10.8547195
-10.8592995
-10.8623495
-10.8608195
-10.8608195
-10.8638695
-10.8577695
-10.8577695
-10.8577695
-10.8638695
-10.8623495
-10.8592995
-10.8608195
-10.8547195
-10.8547195
-10.8592995
-10.8623495
-10.8608195
-10.8608195
-10.8608195
-10.8608195
-10.8577695
-10.8608195
-10.8608195
-10.8623495
-10.8577695
-10.8531895
-10.8577695
-10.8577695
-10.8608195
-10.8608195
-10.8608195
-10.8623495
-10.8592995
-10.8592995
-10.8623495
-10.8577695
-10.8592995
-10.8577695
-10.8623495
-10.8577695
-10.8592995
-10.8577695
-10.8608195
-10.8608195
-10.8592995
-10.8592995
-10.8547195
-10.8577695
-10.8592995
-10.8577695
-10.8608195
-10.8638695
-10.8638695
-10.8638695
-10.8653995
-10.8608195
-10.8623495
-10.8608195
-10.8592995
-10.8562395
-10.8577695
-10.8592995
-10.8562395
-10.8577695
-10.8638695
-10.8577695
-10.8562395
-10.8562395
-10.8562395
-10.8547195
-10.8592995
-10.8562395
-10.8577695
-10.8608195
-10.8592995
-10.8577695
-10.8577695
-10.8653995
-10.8638695
-10.8531895
-10.8608195
-10.8562395
-10.8592995
-10.8623495
-10.8592995
-10.8592995
-10.8608195
-10.8577695
-10.8577695
-10.8577695
-10.8608195
-10.8608195
-10.8623495
-10.8608195
-10.8623495
-10.8638695
-10.8592995
-10.8608195
-10.8623495
-10.8592995
-10.8623495
-10.8623495
-10.8623495
-10.8623495
-10.8608195
-10.8501395
-10.8501395
-10.8531895
-10.8501395
-10.8409895
-10.8409895
-10.8379295
-10.8531895
-10.8699795
-10.8852395
-10.8837095
-10.8776095
-10.8760795
-10.8638695
-10.8592995
-10.8577695
-10.8577695
-10.8653995
-10.8699795
-10.8684495
-10.8669295
-10.8684495
-10.8699795
-10.8653995
-10.8608195
-10.8653995
-10.8577695
-10.8501395
-10.8562395
-10.8638695
-10.8684495
-10.8791295
-10.8699795
-10.8669295
-10.8653995
-10.8623495
-10.8623495
-10.8638695
-10.8684495
-10.8684495
-10.8714995
-10.8684495
-10.8684495
-10.8669295
-10.8653995
-10.8653995
-10.8669295
-10.8608195
-10.8592995
-10.8653995
-10.8714995
-10.8684495
-10.8653995
-10.8669295
-10.8638695
-10.8638695
-10.8684495
-10.8684495
-10.8653995
-10.8699795
-10.8638695
-10.8669295
-10.8669295
-10.8669295
-10.8669295
-10.8653995
-10.8608195
-10.8653995
-10.8653995
-10.8653995
-10.8623495
-10.8638695
-10.8669295
-10.8623495
-10.8638695
-10.8653995
-10.8638695
-10.8608195
-10.8669295
-10.8653995
-10.8653995
-10.8592995
-10.8623495
-10.8638695
-10.8623495
-10.8623495
-10.8669295
-10.8653995
-10.8623495
-10.8653995
-10.8669295
-10.8623495
-10.8684495
-10.8638695
-10.8623495
-10.8653995
-10.8623495
-10.8623495
-10.8638695
-10.8653995
-10.8592995
-10.8638695
-10.8653995
-10.8669295
-10.8638695
-10.8653995
-10.8653995
-10.8669295
-10.8623495
-10.8638695
-10.8608195
-10.8623495
-10.8638695
-10.8638695
-10.8684495
-10.8669295
-10.8669295
-10.8669295
-10.8653995
-10.8669295
-10.8638695
-10.8638695
-10.8653995
-10.8638695
-10.8638695
-10.8592995
-10.8577695
-10.8653995
-10.8684495
-10.8745495
-10.8745495
-10.8699795
-10.8684495
-10.8745495
-10.8653995
-10.8638695
-10.8699795
-10.8684495
-10.8684495
-10.8653995
-10.8699795
-10.8714995
-10.8714995
-10.8699795
-10.8699795
-10.8684495
-10.8669295
-10.8669295
-10.8669295
-10.8684495
-10.8653995
-10.8653995
-10.8638695
-10.8638695
-10.8638695
-10.8623495
-10.8638695
-10.8608195
-10.8592995
-10.8699795
-10.8669295
-10.8638695
-10.8638695
-10.8623495
-10.8608195
-10.8638695
-10.8653995
-10.8669295
-10.8684495
-10.8699795
-10.8684495
-10.8714995
-10.8745495
-10.8669295
-10.8684495
-10.8653995
-10.8623495
-10.8623495
-10.8638695
-10.8653995
-10.8653995
-10.8669295
-10.8669295
-10.8699795
-10.8653995
-10.8669295
-10.8745495
-10.8699795
-10.8745495
-10.8760795
-10.8821795
-10.8837095
-10.8837095
-10.8882895
-10.8806595
-10.8806595
-10.8806595
-10.8806595
-10.8791295
-10.8776095
-10.8714995
-10.8760795
-10.8699795
-10.8760795
-10.8714995
-10.8699795
-10.8745495
-10.8669295
-10.8638695
-10.8638695
-10.8669295
-10.8669295
-10.8776095
-10.8714995
-10.8745495
-10.8684495
-10.8623495
-10.8638695
-10.8684495
-10.8699795
-10.8684495
-10.8699795
-10.8669295
-10.8776095
-10.8760795
-10.8791295
-10.8760795
-10.8791295
-10.8669295
-10.8699795
-10.8745495
-10.8760795
-10.8714995
-10.8776095
-10.8714995
-10.8699795
-10.8714995
-10.8699795
-10.8714995
-10.8745495
-10.8714995
-10.8760795
-10.8760795
-10.8760795
-10.8745495
-10.8745495
-10.8653995
-10.8684495
-10.8699795
-10.8714995
-10.8669295
-10.8669295
-10.8699795
-10.8684495
-10.8669295
-10.8699795
-10.8714995
-10.8684495
-10.8653995
-10.8684495
-10.8714995
-10.8684495
-10.8745495
-10.8745495
-10.8714995
-10.8714995
-10.8714995
-10.8669295
-10.8699795
-10.8699795
-10.8714995
-10.8684495
-10.8699795
-10.8684495
-10.8745495
-10.8745495
-10.8684495
-10.8714995
-10.8669295
-10.8699795
-10.8653995
-10.8653995
-10.8684495
-10.8714995
-10.8638695
-10.8653995
-10.8669295
-10.8684495
-10.8669295
-10.8684495
-10.8699795
-10.8745495
-10.8760795
-10.8669295
-10.8684495
-10.8699795
-10.8745495
-10.8745495
-10.8699795
-10.8745495
-10.8745495
-10.8745495
-10.8745495
-10.8760795
-10.8760795
-10.8791295
-10.8791295
-10.8791295
-10.8684495
-10.8699795
-10.8699795
-10.8684495
-10.8714995
-10.8745495
-10.8745495
-10.8745495
-10.8760795
-10.8714995
-10.8776095
-10.8760795
-10.8745495
-10.8714995
-10.8714995
-10.8745495
-10.8699795
-10.8714995
-10.8684495
-10.8699795
-10.8714995
-10.8760795
-10.8745495
-10.8714995
-10.8776095
-10.8776095
-10.8745495
-10.8760795
-10.8760795
-10.8699795
-10.8745495
-10.8760795
-10.8745495
-10.8745495
-10.8760795
-10.8745495
-10.8760795
-10.8760795
-10.8745495
-10.8714995
-10.8684495
-10.8714995
-10.8684495
-10.8669295
-10.8669295
-10.8714995
-10.8699795
-10.8714995
-10.8714995
-10.8699795
-10.8699795
-10.8745495
-10.8776095
-10.8760795
-10.8714995
-10.8745495
-10.8821795
-10.8806595
-10.8776095
-10.8776095
-10.8760795
-10.8760795
-10.8745495
-10.8760795
-10.8699795
-10.8699795
-10.8714995
-10.8745495
-10.8699795
-10.8714995
-10.8699795
-10.8745495
-10.8760795
-10.8760795
-10.8776095
-10.8821795
-10.8745495
-10.8760795
-10.8791295
-10.8776095
-10.8760795
-10.8714995
-10.8791295
-10.8806595
-10.8806595
-10.8791295
-10.8791295
-10.8837095
-10.8806595
-10.8776095
-10.8745495
-10.8714995
-10.8776095
-10.8776095
-10.8776095
-10.8760795
-10.8791295
-10.8791295
-10.8791295
-10.8776095
-10.8699795
-10.8760795
-10.8821795
-10.8745495
-10.8760795
-10.8745495
-10.8714995
-10.8714995
-10.8776095
-10.8776095
-10.8776095
-10.8791295
-10.8760795
-10.8745495
-10.8776095
-10.8776095
-10.8699795
-10.8699795
-10.8714995
-10.8745495
-10.8699795
-10.8760795
-10.8714995
-10.8714995
-10.8714995
-10.8806595
-10.8714995
-10.8745495
-10.8760795
-10.8776095
-10.8776095
-10.8791295
-10.8791295
-10.8760795
-10.8806595
-10.8745495
-10.8760795
-10.8745495
-10.8760795
-10.8776095
-10.8760795
-10.8867595
-10.8821795
-10.8852395
-10.8806595
-10.8882895
-10.8837095
-10.8867595
-10.8821795
-10.8776095
-10.8714995
-10.8821795
-10.8806595
-10.8776095
-10.8806595
-10.8776095
-10.8806595
-10.8806595
-10.8806595
-10.8806595
-10.8791295
-10.8837095
-10.8806595
-10.8806595
-10.8852395
-10.8837095
-10.8821795
-10.8837095
-10.8821795
-10.8791295
-10.8791295
-10.8776095
-10.8760795
-10.8821795
-10.8821795
-10.8852395
-10.8852395
-10.8821795
-10.8821795
-10.8837095
-10.8867595
-10.8837095
-10.8867595
-10.8821795
-10.8852395
-10.8837095
-10.8837095
-10.8882895
-10.8852395
-10.8821795
-10.8852395
-10.8852395
-10.8852395
-10.8837095
-10.8867595
-10.8821795
-10.8837095
-10.8867595
-10.8867595
-10.8821795
-10.8760795
-10.8837095
-10.8806595
-10.8791295
-10.8776095
-10.8806595
-10.8837095
-10.8806595
-10.8806595
-10.8806595
-10.8806595
-10.8852395
-10.8867595
-10.8821795
-10.8776095
-10.8806595
-10.8791295
-10.8821795
-10.8837095
-10.8852395
-10.8821795
-10.8852395
-10.8867595
-10.8852395
-10.8867595
-10.8898095
-10.8852395
-10.8867595
-10.8882895
-10.8882895
-10.8867595
-10.8882895
-10.8867595
-10.8898095
-10.8898095
-10.8867595
-10.8882895
-10.8898095
-10.8867595
-10.8867595
-10.8867595
-10.8882895
-10.8882895
-10.8882895
-10.8882895
-10.8852395
-10.8882895
-10.8882895
-10.8852395
-10.8867595
-10.8806595
-10.8882895
-10.8882895
-10.8882895
-10.8898095
-10.8882895
-10.8882895
-10.8806595
-10.8852395
-10.8837095
-10.8867595
-10.8882895
-10.8867595
-10.8867595
-10.8867595
-10.8882895
-10.8867595
-10.8882895
-10.8882895
-10.8852395
-10.8852395
-10.8852395
-10.8867595
-10.8867595
-10.8867595
-10.8913395
-10.8882895
-10.8867595
-10.8898095
-10.8867595
-10.8806595
-10.8837095
-10.8852395
-10.8837095
-10.8852395
-10.8821795
-10.8867595
-10.8882895
-10.8898095
-10.8867595
-10.8867595
-10.8882895
-10.8852395
-10.8837095
-10.8821795
-10.8867595
-10.8837095
-10.8867595
-10.8867595
-10.8882895
-10.8821795
-10.8852395
-10.8898095
-10.8837095
-10.8837095
-10.8852395
-10.8898095
-10.8882895
-10.8928695
-10.8943895
-10.8928695
-10.8913395
-10.8898095
-10.8913395
-10.8943895
-10.8913395
-10.8928695
-10.8959195
-10.8928695
-10.8913395
-10.8898095
-10.8943895
-10.8913395
-10.8913395
-10.8898095
-10.8928695
-10.8898095
-10.8943895
-10.8943895
-10.8913395
-10.8898095
-10.8837095
-10.8867595
-10.8913395
-10.8913395
-10.8913395
-10.8882895
-10.8913395
-10.8928695
-10.8882895
-10.8837095
-10.8913395
-10.8852395
-10.8913395
-10.8898095
-10.8882895
-10.8882895
-10.8867595
-10.8867595
-10.8867595
-10.8867595
-10.8898095
-10.8882895
-10.8882895
-10.8913395
-10.8913395
-10.8974395
-10.8913395
-10.8913395
-10.8898095
-10.8913395
-10.8898095
-10.8898095
-10.8867595
-10.8898095
-10.8928695
-10.8898095
-10.8943895
-10.8974395
-10.8928695
-10.8928695
-10.8943895
-10.8943895
-10.8913395
-10.8928695
-10.8928695
-10.8959195
-10.8959195
-10.8959195
-10.8974395
-10.8974395
-10.8943895
-10.8974395
-10.8913395
-10.8913395
-10.8913395
-10.8913395
-10.8959195
-10.8959195
-10.8943895
-10.8959195
-10.8974395
-10.8943895
-10.8943895
-10.8943895
-10.8959195
-10.8959195
-10.8959195
-10.8974395
-10.8928695
-10.8928695
-10.8959195
-10.8943895
-10.8943895
-10.8974395
-10.8959195
-10.8974395
-10.8974395
-10.8974395
-10.8913395
-10.8928695
-10.8943895
-10.8913395
-10.8943895
-10.8928695
-10.8943895
-10.8943895
-10.8928695
-10.8989695
-10.8959195
-10.8913395
-10.8943895
-10.8913395
-10.8882895
-10.8898095
-10.8959195
-10.8882895
-10.8898095
-10.8959195
-10.8928695
-10.8959195
-10.8959195
-10.8989695
-10.8974395
-10.8943895
-10.8959195
-10.8943895
-10.8959195
-10.8943895
-10.8943895
-10.8943895
-10.8943895
-10.8928695
-10.8943895
-10.8928695
-10.8974395
-10.8989695
-10.8959195
-10.8959195
-10.8928695
-10.8882895
-10.8943895
-10.8943895
-10.8882895
-10.8959195
-10.8959195
-10.8989695
-10.8974395
-10.8959195
-10.8959195
-10.8959195
-10.9020195
-10.8974395
-10.8974395
-10.8989695
-10.9020195
-10.9020195
-10.8989695
-10.8974395
-10.8989695
-10.8974395
-10.8989695
-10.8959195
-10.8959195
-10.8943895
-10.8974395
-10.8974395
-10.8943895
-10.8959195
-10.8898095
-10.8913395
-10.8913395
-10.8959195
-10.8928695
-10.8943895
-10.8943895
-10.8913395
-10.8959195
-10.8989695
-10.8974395
-10.8974395
-10.8974395
-10.8913395
-10.8943895
-10.8974395
-10.8974395
-10.8974395
-10.8974395
-10.8974395
-10.8943895
-10.8928695
-10.8959195
-10.8943895
-10.8898095
-10.8898095
-10.8898095
-10.8928695
-10.8913395
-10.8913395
-10.8928695
-10.8989695
-10.8959195
-10.8928695
-10.8974395
-10.8959195
-10.8943895
-10.8943895
-10.8974395
-10.8928695
-10.8928695
-10.8928695
-10.8989695
-10.8959195
-10.8959195
-10.8959195
-10.8989695
-10.8959195
-10.8928695
-10.8959195
-10.8928695
-10.8943895
-10.8913395
-10.8974395
-10.8913395
-10.8974395
-10.8974395
-10.8959195
-10.8989695
-10.8974395
-10.8989695
-10.8959195
-10.8989695
-10.8959195
-10.8943895
-10.8989695
-10.8959195
-10.8959195
-10.9004895
-10.9020195
-10.9004895
-10.8974395
-10.9065995
-10.9050695
-10.8989695
-10.9004895
-10.8974395
-10.9065995
-10.8989695
-10.8959195
-10.8943895
-10.8943895
-10.8974395
-10.8959195
-10.8974395
-10.9004895
-10.8974395
-10.8943895
-10.8989695
-10.8989695
-10.8959195
-10.8943895
-10.8943895
-10.8974395
-10.8974395
-10.9004895
-10.9065995
-10.9081195
-10.9004895
-10.9004895
-10.9004895
-10.9004895
-10.8989695
-10.8989695
-10.8974395
-10.8989695
-10.9004895
-10.8989695
-10.8989695
-10.8974395
-10.8974395
-10.9020195
-10.8989695
-10.8959195
-10.8959195
-10.8974395
-10.8974395
-10.8959195
-10.8989695
-10.8959195
-10.8974395
-10.8913395
-10.8943895
-10.8989695
-10.8974395
-10.8959195
-10.8959195
-10.8943895
-10.8943895
-10.8943895
-10.8928695
-10.8943895
-10.8959195
-10.8913395
-10.8959195
-10.9004895
-10.9020195
-10.9004895
-10.9020195
-10.9004895
-10.9020195
-10.9004895
-10.8989695
-10.8989695
-10.8959195
-10.8974395
-10.9050695
-10.8989695
-10.8989695
-10.9050695
-10.8974395
-10.8974395
-10.8989695
-10.8989695
-10.8989695
-10.8974395
-10.9004895
-10.8989695
-10.8959195
-10.8974395
-10.8959195
-10.8959195
-10.8974395
-10.8974395
-10.8974395
-10.8989695
-10.8989695
-10.8989695
-10.8989695
-10.8989695
-10.8959195
-10.8928695
-10.8974395
-10.9004895
-10.8989695
-10.9050695
-10.8974395
-10.9020195
-10.8989695
-10.8989695
-10.8974395
-10.9050695
-10.9050695
-10.9020195
-10.8989695
-10.8928695
-10.8943895
-10.8943895
-10.8928695
-10.8943895
-10.8943895
-10.8943895
-10.8959195
-10.9020195
-10.9050695
-10.9065995
-10.9081195
-10.9050695
-10.9004895
-10.8989695
-10.8989695
-10.8974395
-10.8974395
-10.9020195
-10.8974395
-10.9050695
-10.8989695
-10.9004895
-10.9065995
-10.9050695
-10.9065995
-10.9081195
-10.9081195
-10.9065995
-10.9081195
-10.9096495
-10.9111795
-10.9096495
-10.9126995
-10.9111795
-10.9111795
-10.9111795
-10.9111795
-10.9111795
-10.9065995
-10.9111795
-10.9081195
-10.9020195
-10.9050695
-10.9081195
-10.9081195
-10.9081195
-10.9096495
-10.9065995
-10.9050695
-10.9065995
-10.9065995
-10.9004895
-10.8974395
-10.8974395
-10.9020195
-10.9020195
-10.9020195
-10.9004895
-10.8974395
-10.8974395
-10.9004895
-10.9050695
-10.9004895
-10.9020195
-10.9004895
-10.9020195
-10.8989695
-10.9065995
-10.9020195
-10.9004895
-10.9020195
-10.9020195
-10.9020195
-10.9020195
-10.9004895
-10.9020195
-10.9020195
-10.8989695
-10.8989695
-10.9004895
-10.8959195
-10.8913395
-10.9004895
-10.9004895
-10.8989695
-10.8974395
-10.9020195
-10.8989695
-10.8959195
-10.9050695
-10.8989695
-10.9020195
-10.8989695
-10.9020195
-10.8989695
-10.9004895
-10.9004895
-10.9004895
-10.8989695
-10.9004895
-10.9020195
-10.8989695
-10.8989695
-10.9020195
-10.8989695
-10.8974395
-10.8974395
-10.8974395
-10.8959195
-10.8989695
-10.9004895
-10.8943895
-10.9004895
-10.9050695
-10.8974395
-10.9020195
-10.9020195
-10.9065995
-10.9020195
-10.8989695
-10.8989695
-10.8974395
-10.8974395
-10.8974395
-10.8989695
-10.8959195
-10.8989695
-10.8974395
-10.8974395
-10.8959195
-10.9050695
-10.9004895
-10.9004895
-10.8974395
-10.9004895
-10.8974395
-10.9004895
-10.8959195
-10.8943895
-10.9004895
-10.9004895
-10.9020195
-10.9004895
-10.8989695
-10.9050695
-10.8989695
-10.9050695
-10.8959195
-10.8989695
-10.8989695
-10.8989695
-10.8974395
-10.9020195
-10.9004895
-10.9050695
-10.9020195
-10.9004895
-10.9050695
-10.9065995
-10.9020195
-10.9050695
-10.9004895
-10.9020195
-10.9050695
-10.9050695
-10.9020195
-10.8989695
-10.9004895
-10.8989695
-10.8974395
-10.9004895
-10.8989695
-10.9004895
-10.9020195
-10.8989695
-10.9004895
-10.9050695
-10.9020195
-10.8959195
-10.8989695
-10.9004895
-10.8959195
-10.8974395
-10.8989695
-10.9004895
-10.8959195
-10.9004895
-10.8974395
-10.8959195
-10.9050695
-10.9081195
-10.9081195
-10.9050695
-10.9065995
-10.9020195
-10.9020195
-10.9020195
-10.8974395
-10.9020195
-10.9065995
-10.9050695
-10.9020195
-10.9081195
-10.9081195
-10.9096495
-10.9096495
-10.9065995
-10.9050695
-10.9065995
-10.9111795
-10.9081195
-10.9050695
-10.9020195
-10.9050695
-10.9004895
-10.9004895
-10.9050695
-10.9004895
-10.9020195
-10.9065995
-10.9020195
-10.9020195
-10.9050695
-10.9050695
-10.9020195
-10.9020195
-10.9050695
-10.9050695
-10.9065995
-10.8989695
-10.9065995
-10.9081195
-10.9081195
-10.9050695
-10.9081195
-10.9020195
-10.9020195
-10.9020195
-10.8943895
-10.8959195
-10.8898095
-10.8959195
-10.8974395
-10.8943895
-10.8974395
-10.8974395
-10.9065995
-10.9020195
-10.9065995
-10.9065995
-10.9111795
-10.9065995
-10.9111795
-10.9111795
-10.9126995
-10.9081195
-10.9096495
-10.9081195
-10.9065995
-10.9081195
-10.9065995
-10.9096495
-10.9050695
-10.9096495
-10.9081195
-10.9050695
-10.8989695
-10.9020195
-10.9004895
-10.9050695
-10.9020195
-10.9004895
-10.9004895
-10.8989695
-10.8989695
-10.8989695
-10.9004895
-10.9004895
-10.9050695
-10.9050695
-10.9020195
-10.9004895
-10.9020195
-10.9065995
-10.9050695
-10.9065995
-10.9050695
-10.9020195
-10.9004895
-10.9081195
-10.9050695
-10.9065995
-10.9050695
-10.9081195
-10.9081195
-10.9081195
-10.9065995
-10.9050695
-10.9081195
-10.9050695
-10.9065995
-10.9065995
-10.9081195
-10.9081195
-10.9081195
-10.9065995
-10.9020195
-10.9050695
-10.9004895
-10.8974395
-10.9050695
-10.9050695
-10.9004895
-10.9020195
-10.9004895
-10.9020195
-10.9004895
-10.8989695
-10.8989695
-10.9004895
-10.9004895
-10.8943895
-10.9004895
-10.9065995
-10.8989695
-10.8959195
-10.8928695
-10.8989695
-10.9050695
-10.9020195
-10.9050695
-10.9004895
-10.9020195
-10.9050695
-10.9065995
-10.9020195
-10.9050695
-10.9050695
-10.9020195
-10.9020195
-10.9004895
-10.9065995
-10.9065995
-10.9081195
-10.9050695
-10.9050695
-10.9065995
-10.9004895
-10.9065995
-10.9050695
-10.9050695
-10.9020195
-10.9065995
-10.9020195
-10.9004895
-10.9020195
-10.9065995
-10.9050695
-10.9065995
-10.9065995
-10.9081195
-10.9020195
-10.9050695
-10.9020195
-10.9050695
-10.9081195
-10.9050695
-10.9065995
-10.9065995
-10.9081195
-10.9096495
-10.9096495
-10.9096495
-10.9020195
-10.9050695
-10.9020195
-10.9004895
-10.9004895
-10.9004895
-10.8974395
-10.9050695
-10.9020195
-10.9004895
-10.9050695
-10.9081195
-10.9050695
-10.9081195
-10.9081195
-10.9020195
-10.9096495
-10.9065995
-10.9111795
-10.9065995
-10.9050695
-10.9050695
-10.9065995
-10.9081195
-10.9065995
-10.9081195
-10.9050695
-10.9050695
-10.9004895
-10.9050695
-10.9050695
-10.8989695
-10.9050695
-10.9020195
-10.9020195
-10.9050695
-10.9065995
-10.9020195
-10.9050695
-10.9050695
-10.9020195
-10.9065995
-10.9065995
-10.9020195
-10.9020195
-10.9050695
-10.9065995
-10.9065995
-10.9050695
-10.9065995
-10.9065995
-10.9065995
-10.9065995
-10.9050695
-10.9050695
-10.9065995
-10.9065995
-10.9081195
-10.9081195
-10.9065995
-10.9081195
-10.9096495
-10.9126995
-10.9142295
-10.9096495
-10.9126995
-10.9096495
-10.9157495
-10.9142295
-10.9142295
-10.9126995
-10.9157495
-10.9142295
-10.9142295
-10.9142295
-10.9096495
-10.9081195
-10.9081195
-10.9050695
-10.9081195
-10.9065995
-10.9081195
-10.9157495
-10.9126995
-10.9126995
-10.9142295
-10.9126995
-10.9126995
-10.9081195
-10.9096495
-10.9142295
-10.9111795
-10.9096495
-10.9096495
-10.9111795
-10.9096495
-10.9081195
-10.9126995
-10.9065995
-10.9096495
-10.9096495
-10.9111795
-10.9096495
-10.9111795
-10.9096495
-10.9157495
-10.9111795
-10.9111795
-10.9111795
-10.9126995
-10.9096495
-10.9096495
-10.9126995
-10.9126995
-10.9126995
-10.9096495
-10.9142295
-10.9172795
-10.9172795
-10.9157495
-10.9142295
-10.9126995
-10.9142295
-10.9157495
-10.9126995
-10.9126995
-10.9111795
-10.9157495
-10.9172795
-10.9157495
-10.9142295
-10.9126995
-10.9096495
-10.9111795
-10.9126995
-10.9111795
-10.9157495
-10.9157495
-10.9142295
-10.9126995
-10.9142295
-10.9142295
-10.9142295
-10.9126995
-10.9142295
-10.9142295
-10.9172795
-10.9157495
-10.9111795
-10.9157495
-10.9142295
-10.9142295
-10.9126995
-10.9172795
-10.9188095
-10.9172795
-10.9188095
-10.9188095
-10.9203295
-10.9203295
-10.9233795
-10.9157495
-10.9126995
-10.9142295
-10.9157495
-10.9126995
-10.9203295
-10.9142295
-10.9172795
-10.9126995
-10.9157495
-10.9126995
-10.9142295
-10.9172795
-10.9142295
-10.9157495
-10.9142295
-10.9096495
-10.9096495
-10.9096495
-10.9111795
-10.9111795
-10.9126995
-10.9111795
-10.9111795
-10.9081195
-10.9081195
-10.9126995
-10.9111795
-10.9096495
-10.9157495
-10.9111795
-10.9081195
-10.9096495
-10.9111795
-10.9081195
-10.9096495
-10.9096495
-10.9142295
-10.9157495
-10.9142295
-10.9142295
-10.9111795
-10.9126995
-10.9081195
-10.9111795
-10.9172795
-10.9157495
-10.9157495
-10.9111795
-10.9142295
-10.9142295
-10.9142295
-10.9126995
-10.9157495
-10.9142295
-10.9157495
-10.9142295
-10.9142295
-10.9142295
-10.9157495
-10.9157495
-10.9111795
-10.9142295
-10.9142295
-10.9142295
-10.9126995
-10.9157495
-10.9111795
-10.9142295
-10.9096495
-10.9126995
-10.9126995
-10.9126995
-10.9111795
-10.9081195
-10.9111795
-10.9096495
-10.9081195
-10.9065995
-10.9096495
-10.9081195
-10.9065995
-10.9096495
-10.9096495
-10.9111795
-10.9126995
-10.9126995
-10.9126995
-10.9142295
-10.9126995
-10.9126995
-10.9096495
-10.9081195
-10.9096495
-10.9096495
-10.9096495
-10.9126995
-10.9065995
-10.9096495
-10.9126995
-10.9126995
-10.9126995
-10.9142295
-10.9096495
-10.9065995
-10.9050695
-10.9081195
-10.9065995
-10.9020195
-10.9111795
-10.9065995
-10.9096495
-10.9096495
-10.9065995
-10.9065995
-10.9050695
-10.9096495
-10.9111795
-10.9126995
-10.9111795
-10.9142295
-10.9111795
-10.9111795
-10.9126995
-10.9096495
-10.9111795
-10.9111795
-10.9081195
-10.9157495
-10.9157495
-10.9142295
-10.9172795
-10.9157495
-10.9157495
-10.9142295
-10.9188095
-10.9157495
-10.9126995
-10.9172795
-10.9111795
-10.9172795
-10.9157495
-10.9157495
-10.9126995
-10.9142295
-10.9142295
-10.9126995
-10.9096495
-10.9111795
-10.9142295
-10.9111795
-10.9157495
-10.9142295
-10.9126995
-10.9126995
-10.9126995
-10.9142295
-10.9142295
-10.9096495
-10.9126995
-10.9096495
-10.9111795
-10.9111795
-10.9081195
-10.9081195
-10.9065995
-10.9081195
-10.9065995
-10.9111795
-10.9081195
-10.9096495
-10.9065995
-10.9065995
-10.9081195
-10.9065995
-10.9081195
-10.9096495
-10.9126995
-10.9126995
-10.9142295
-10.9096495
-10.9096495
-10.9111795
-10.9111795
-10.9111795
-10.9096495
-10.9096495
-10.9111795
-10.9126995
-10.9096495
-10.9111795
-10.9126995
-10.9126995
-10.9096495
-10.9126995
-10.9111795
-10.9111795
-10.9111795
-10.9081195
-10.9111795
-10.9065995
-10.9081195
-10.9065995
-10.9081195
-10.9065995
-10.9081195
-10.9065995
-10.9020195
-10.9050695
-10.9020195
-10.9050695
-10.9020195
-10.9096495
-10.9065995
-10.9081195
-10.9081195
-10.9188095
-10.9157495
-10.9203295
-10.9142295
-10.9111795
-10.9081195
-10.9096495
-10.9081195
-10.9081195
-10.9111795
-10.9096495
-10.9065995
-10.9096495
-10.9157495
-10.9111795
-10.9111795
-10.9111795
-10.9111795
-10.9126995
-10.9111795
-10.9111795
-10.9096495
-10.9081195
-10.9111795
-10.9142295
-10.9111795
-10.9142295
-10.9081195
-10.9081195
-10.9065995
-10.9065995
-10.9096495
-10.9111795
-10.9111795
-10.9096495
-10.9111795
-10.9096495
-10.9111795
-10.9081195
-10.9096495
-10.9096495
-10.9111795
-10.9081195
-10.9126995
-10.9126995
-10.9126995
-10.9188095
-10.9157495
-10.9142295
-10.9111795
-10.9172795
-10.9157495
-10.9188095
-10.9188095
-10.9218595
-10.9233795
-10.9233795
-10.9233795
-10.9218595
-10.9203295
-10.9188095
-10.9188095
-10.9188095
-10.9188095
-10.9203295
-10.9142295
-10.9172795
-10.9157495
-10.9142295
-10.9126995
-10.9126995
-10.9111795
-10.9126995
-10.9142295
-10.9126995
-10.9081195
-10.9111795
-10.9065995
-10.9111795
-10.9065995
-10.9096495
-10.9096495
-10.9111795
-10.9157495
-10.9126995
-10.9126995
-10.9081195
-10.9065995
-10.9020195
-10.9065995
-10.9050695
-10.9081195
-10.9065995
-10.9081195
-10.9081195
-10.9126995
-10.9157495
-10.9188095
-10.9172795
-10.9126995
-10.9172795
-10.9142295
-10.9188095
-10.9126995
-10.9096495
-10.9096495
-10.9111795
-10.9096495
-10.9065995
-10.9096495
-10.9096495
-10.9126995
-10.9111795
-10.9111795
-10.9096495
-10.9126995
-10.9111795
-10.9126995
-10.9111795
-10.9065995
-10.9096495
-10.9081195
-10.9126995
-10.9142295
-10.9142295
-10.9111795
-10.9126995
-10.9111795
-10.9157495
-10.9111795
-10.9126995
-10.9126995
-10.9142295
-10.9142295
-10.9111795
-10.9096495
-10.9126995
-10.9111795
-10.9111795
-10.9096495
-10.9050695
-10.9050695
-10.9065995
-10.9081195
-10.9065995
-10.9050695
-10.9065995
-10.9020195
-10.9065995
-10.9050695
-10.9142295
-10.9081195
-10.9111795
-10.9065995
-10.9065995
-10.9081195
-10.9065995
-10.9065995
-10.9111795
-10.9111795
-10.9111795
-10.9111795
-10.9096495
-10.9096495
-10.9096495
-10.9096495
-10.9081195
-10.9096495
-10.9111795
-10.9081195
-10.9081195
-10.9096495
-10.9081195
-10.9081195
-10.9096495
-10.9081195
-10.9096495
-10.9050695
-10.9050695
-10.9050695
-10.9050695
-10.9050695
-10.9081195
-10.9111795
-10.9065995
-10.9081195
-10.9096495
-10.9096495
-10.9065995
-10.9096495
-10.9096495
-10.9157495
-10.9065995
-10.9081195
-10.9096495
-10.9050695
-10.9065995
-10.9065995
-10.9065995
-10.9050695
-10.9081195
-10.9081195
-10.9096495
-10.9020195
-10.9081195
-10.9050695
-10.9081195
-10.9081195
-10.9065995
-10.9096495
-10.9020195
-10.9065995
-10.9081195
-10.9096495
-10.9081195
-10.9081195
-10.9111795
-10.9111795
-10.9096495
-10.9111795
-10.9096495
-10.9111795
-10.9096495
-10.9081195
-10.9157495
-10.9172795
-10.9172795
-10.9096495
-10.9096495
-10.9081195
-10.9020195
-10.8989695
-10.9065995
-10.9096495
-10.9081195
-10.9096495
-10.9096495
-10.9096495
-10.9081195
-10.9081195
-10.9081195
-10.9096495
-10.9050695
-10.9050695
-10.9096495
-10.9111795
-10.9111795
-10.9096495
-10.9111795
-10.9081195
-10.9111795
-10.9065995
-10.9081195
-10.9096495
-10.9081195
-10.9081195
-10.9081195
-10.9081195
-10.9096495
-10.9111795
-10.9096495
-10.9081195
-10.9081195
-10.9050695
-10.9020195
-10.9020195
-10.9065995
-10.9096495
-10.9081195
-10.9081195
-10.9081195
-10.9081195
-10.9065995
-10.9081195
-10.9111795
-10.9111795
-10.9081195
-10.9081195
-10.9096495
-10.9126995
-10.9126995
-10.9126995
-10.9126995
-10.9111795
-10.9096495
-10.9081195
-10.9096495
-10.9081195
-10.9096495
-10.9096495
-10.9111795
-10.9081195
-10.9081195
-10.9065995
-10.9065995
-10.9050695
-10.9050695
-10.9050695
-10.9050695
-10.9065995
-10.9081195
-10.9050695
-10.9111795
-10.9081195
-10.9081195
-10.9111795
-10.9142295
-10.9142295
-10.9081195
-10.9111795
-10.9096495
-10.9111795
-10.9111795
-10.9065995
-10.9096495
-10.9065995
-10.9096495
-10.9111795
-10.9065995
-10.9142295
-10.9188095
-10.9126995
-10.9111795
-10.9111795
-10.9172795
-10.9172795
-10.9157495
-10.9111795
-10.9111795
-10.9096495
-10.9111795
-10.9081195
-10.9111795
-10.9142295
-10.9126995
-10.9126995
-10.9111795
-10.9081195
-10.9004895
-10.9004895
-10.9065995
-10.9065995
-10.9050695
-10.9096495
-10.9065995
-10.9065995
-10.9081195
-10.9065995
-10.9081195
-10.9050695
-10.9065995
-10.9096495
-10.9111795
-10.9111795
-10.9081195
-10.9157495
-10.9096495
-10.9111795
-10.9096495
-10.9126995
-10.9050695
-10.9020195
-10.9081195
-10.9096495
-10.9065995
-10.9081195
-10.9065995
-10.9081195
-10.9096495
-10.9126995
-10.9126995
-10.9081195
-10.9096495
-10.9081195
-10.9096495
-10.9111795
-10.9065995
-10.9050695
-10.9065995
-10.9020195
-10.9081195
-10.9096495
-10.9111795
-10.9096495
-10.9065995
-10.9065995
-10.9081195
-10.9065995
-10.9020195
-10.9050695
-10.9081195
-10.9065995
-10.9065995
-10.9081195
-10.9111795
-10.9111795
-10.9142295
-10.9142295
-10.9142295
-10.9096495
-10.9157495
-10.9142295
-10.9126995
-10.9126995
-10.9081195
-10.9111795
-10.9111795
-10.9111795
-10.9111795
-10.9142295
-10.9142295
-10.9142295
-10.9126995
-10.9126995
-10.9081195
-10.9096495
-10.9126995
-10.9157495
-10.9142295
-10.9157495
-10.9157495
-10.9111795
-10.9157495
-10.9081195
-10.9111795
-10.9081195
-10.9096495
-10.9111795
-10.9111795
-10.9081195
-10.9096495
-10.9126995
-10.9111795
-10.9126995
-10.9096495
-10.9172795
-10.9142295
-10.9111795
-10.9111795
-10.9126995
-10.9111795
-10.9126995
-10.9081195
-10.9111795
-10.9111795
-10.9111795
-10.9142295
-10.9111795
-10.9111795
-10.9096495
-10.9081195
-10.9081195
-10.9111795
-10.9096495
-10.9081195
-10.9096495
-10.9111795
-10.9126995
-10.9126995
-10.9096495
-10.9096495
-10.9111795
-10.9081195
-10.9126995
-10.9157495
-10.9126995
-10.9111795
-10.9126995
-10.9081195
-10.9126995
-10.9126995
-10.9111795
-10.9096495
-10.9081195
-10.9096495
-10.9081195
-10.9142295
-10.9096495
-10.9126995
-10.9142295
-10.9126995
-10.9126995
-10.9172795
-10.9142295
-10.9126995
-10.9142295
-10.9172795
-10.9157495
-10.9142295
-10.9157495
-10.9142295
-10.9157495
-10.9172795
-10.9142295
-10.9111795
-10.9111795
-10.9111795
-10.9126995
-10.9142295
-10.9081195
-10.9142295
-10.9126995
-10.9126995
-10.9111795
-10.9142295
-10.9111795
-10.9111795
-10.9111795
-10.9111795
-10.9096495
-10.9050695
-10.9081195
-10.9096495
-10.9126995
-10.9126995
-10.9126995
-10.9096495
-10.9111795
-10.9157495
-10.9142295
-10.9126995
-10.9142295
-10.9111795
-10.9096495
-10.9096495
-10.9065995
-10.9111795
-10.9065995
-10.9081195
-10.9081195
-10.9050695
-10.9065995
-10.9020195
-10.9065995
-10.9081195
-10.9096495
-10.9081195
-10.9065995
-10.9050695
-10.9065995
-10.9065995
-10.9065995
-10.9065995
-10.9081195
-10.9111795
-10.9081195
-10.9081195
-10.9126995
-10.9126995
-10.9142295
-10.9157495
-10.9126995
-10.9142295
-10.9126995
-10.9096495
-10.9111795
-10.9111795
-10.9096495
-10.9081195
-10.9142295
-10.9111795
-10.9111795
-10.9142295
-10.9111795
-10.9081195
-10.9111795
-10.9096495
-10.9096495
-10.9065995
-10.9111795
-10.9126995
-10.9111795
-10.9126995
-10.9081195
-10.9111795
-10.9096495
-10.9111795
-10.9065995
-10.9065995
-10.9096495
-10.9020195
-10.9050695
-10.9065995
-10.9111795
-10.9096495
-10.9126995
-10.9096495
-10.9126995
-10.9111795
-10.9111795
-10.9081195
-10.9081195
-10.9081195
-10.9096495
-10.9081195
-10.9081195
-10.9081195
-10.9081195
-10.9126995
-10.9111795
-10.9126995
-10.9081195
-10.9081195
-10.9096495
-10.9065995
-10.9096495
-10.9096495
-10.9096495
-10.9081195
-10.9096495
-10.9081195
-10.9126995
-10.9081195
-10.9142295
-10.9111795
-10.9096495
-10.9111795
-10.9081195
-10.9111795
-10.9111795
-10.9126995
-10.9142295
-10.9172795
-10.9142295
-10.9142295
-10.9126995
-10.9142295
-10.9142295
-10.9142295
-10.9111795
-10.9081195
-10.9081195
-10.9111795
-10.9142295
-10.9081195
-10.9096495
-10.9096495
-10.9111795
-10.9065995
-10.9111795
-10.9111795
-10.9111795
-10.9111795
-10.9126995
-10.9157495
-10.9157495
-10.9172795
-10.9126995
-10.9157495
-10.9126995
-10.9126995
-10.9142295
-10.9157495
-10.9126995
-10.9142295
-10.9188095
-10.9142295
-10.9126995
-10.9111795
-10.9126995
-10.9111795
-10.9096495
-10.9126995
-10.9096495
-10.9081195
-10.9065995
-10.9050695
-10.9081195
-10.9111795
-10.9096495
-10.9111795
-10.9096495
-10.9126995
-10.9111795
-10.9126995
-10.9096495
-10.9081195
-10.9081195
-10.9096495
-10.9096495
-10.9142295
-10.9111795
-10.9126995
-10.9157495
-10.9126995
-10.9172795
-10.9142295
-10.9142295
-10.9111795
-10.9126995
-10.9111795
-10.9126995
-10.9111795
-10.9111795
-10.9126995
-10.9111795
-10.9142295
-10.9096495
-10.9142295
-10.9142295
-10.9172795
-10.9157495
-10.9203295
-10.9142295
-10.9126995
-10.9142295
-10.9111795
-10.9157495
-10.9157495
-10.9188095
-10.9157495
-10.9157495
-10.9218595
-10.9233795
-10.9188095
-10.9203295
-10.9172795
-10.9142295
-10.9142295
-10.9172795
-10.9157495
-10.9142295
-10.9126995
-10.9142295
-10.9157495
-10.9172795
-10.9188095
-10.9172795
-10.9218595
-10.9218595
-10.9203295
-10.9203295
-10.9203295
-10.9188095
-10.9188095
-10.9203295
-10.9233795
-10.9218595
-10.9203295
-10.9218595
-10.9157495
-10.9172795
-10.9172795
-10.9218595
-10.9203295
-10.9172795
-10.9172795
-10.9142295
-10.9142295
-10.9142295
-10.9188095
-10.9188095
-10.9188095
-10.9157495
-10.9188095
-10.9188095
-10.9172795
-10.9172795
-10.9126995
-10.9157495
-10.9111795
-10.9142295
-10.9157495
-10.9188095
-10.9188095
-10.9188095
-10.9172795
-10.9172795
-10.9126995
-10.9172795
-10.9188095
-10.9157495
-10.9157495
-10.9142295
-10.9157495
-10.9111795
-10.9157495
-10.9111795
-10.9157495
-10.9142295
-10.9126995
-10.9111795
-10.9111795
-10.9157495
-10.9172795
-10.9188095
-10.9142295
-10.9172795
-10.9142295
-10.9142295
-10.9111795
-10.9157495
-10.9172795
-10.9142295
-10.9172795
-10.9172795
-10.9203295
-10.9172795
-10.9172795
-10.9172795
-10.9233795
-10.9203295
-10.9233795
-10.9218595
-10.9188095
-10.9157495
-10.9188095
-10.9172795
-10.9188095
-10.9218595
-10.9218595
-10.9188095
-10.9172795
-10.9203295
-10.9172795
-10.9157495
-10.9157495
-10.9172795
-10.9188095
-10.9172795
-10.9157495
-10.9142295
-10.9172795
-10.9157495
-10.9157495
-10.9188095
-10.9126995
-10.9126995
-10.9157495
-10.9126995
-10.9111795
-10.9111795
-10.9142295
-10.9172795
-10.9111795
-10.9172795
-10.9142295
-10.9188095
-10.9111795
-10.9172795
-10.9172795
-10.9157495
-10.9126995
-10.9157495
-10.9111795
-10.9172795
-10.9157495
-10.9126995
-10.9157495
-10.9126995
-10.9188095
-10.9203295
-10.9249095
-10.9249095
-10.9294895
-10.9279595
-10.9279595
-10.9264295
-10.9294895
-10.9294895
-10.9218595
-10.9172795
-10.9157495
-10.9188095
-10.9126995
-10.9172795
-10.9126995
-10.9157495
-10.9188095
-10.9188095
-10.9218595
-10.9218595
-10.9233795
-10.9279595
-10.9401695
-10.9371195
-10.9371195
-10.9340595
-10.9340595
-10.9294895
-10.9249095
-10.9249095
-10.9203295
-10.9218595
-10.9264295
-10.9294895
-10.9233795
-10.9249095
-10.9188095
-10.9188095
-10.9172795
-10.9233795
-10.9233795
-10.9203295
-10.9203295
-10.9172795
-10.9188095
-10.9188095
-10.9218595
-10.9218595
-10.9249095
-10.9264295
-10.9310095
-10.9249095
-10.9249095
-10.9294895
-10.9264295
-10.9249095
-10.9264295
-10.9310095
-10.9264295
-10.9310095
-10.9310095
-10.9294895
-10.9264295
-10.9264295
-10.9279595
-10.9310095
-10.9325395
-10.9279595
-10.9294895
-10.9279595
-10.9279595
-10.9264295
-10.9294895
-10.9294895
-10.9310095
-10.9264295
-10.9218595
-10.9218595
-10.9188095
-10.9233795
-10.9233795
-10.9264295
-10.9264295
-10.9310095
-10.9401695
-10.9371195
-10.9340595
-10.9325395
-10.9340595
-10.9371195
-10.9325395
-10.9340595
-10.9416895
-10.9401695
-10.9401695
-10.9371195
-10.9371195
-10.9371195
-10.9386395
-10.9386395
-10.9325395
-10.9340595
-10.9325395
-10.9340595
-10.9294895
-10.9325395
-10.9310095
-10.9340595
-10.9279595
-10.9249095
-10.9264295
-10.9249095
-10.9264295
-10.9294895
-10.9279595
-10.9264295
-10.9264295
-10.9294895
-10.9325395
-10.9294895
-10.9340595
-10.9310095
-10.9294895
-10.9264295
-10.9249095
-10.9218595
-10.9264295
-10.9264295
-10.9203295
-10.9157495
-10.9172795
-10.9188095
-10.9126995
-10.9188095
-10.9172795
-10.9233795
-10.9264295
-10.9325395
-10.9325395
-10.9416895
-10.9432195
-10.9462695
-10.9477995
-10.9523695
-10.9523695
-10.9493195
-10.9477995
-10.9447495
-10.9432195
-10.9462695
-10.9432195
-10.9386395
-10.9401695
-10.9401695
-10.9371195
-10.9340595
-10.9340595
-10.9310095
-10.9294895
-10.9294895
-10.9294895
-10.9264295
-10.9279595
-10.9340595
-10.9325395
-10.9325395
-10.9371195
-10.9386395
-10.9386395
-10.9386395
-10.9401695
-10.9371195
-10.9371195
-10.9325395
-10.9325395
-10.9279595
-10.9279595
-10.9294895
-10.9294895
-10.9279595
-10.9264295
-10.9264295
-10.9310095
-10.9325395
-10.9325395
-10.9325395
-10.9340595
-10.9310095
-10.9340595
-10.9294895
-10.9279595
-10.9264295
-10.9310095
-10.9310095
-10.9294895
-10.9279595
-10.9310095
-10.9249095
-10.9279595
-10.9310095
-10.9325395
-10.9294895
-10.9279595
-10.9264295
-10.9279595
-10.9264295
-10.9294895
-10.9310095
-10.9264295
-10.9294895
-10.9249095
-10.9264295
-10.9279595
-10.9294895
-10.9325395
-10.9294895
-10.9371195
-10.9325395
-10.9279595
-10.9249095
-10.9279595
-10.9264295
-10.9264295
-10.9249095
-10.9294895
-10.9310095
-10.9401695
-10.9416895
-10.9401695
-10.9416895
-10.9447495
-10.9416895
-10.9386395
-10.9401695
-10.9371195
-10.9340595
-10.9294895
-10.9294895
-10.9249095
-10.9279595
-10.9279595
-10.9294895
-10.9294895
-10.9325395
-10.9310095
-10.9264295
-10.9264295
-10.9249095
-10.9294895
-10.9294895
-10.9310095
-10.9294895
-10.9340595
-10.9310095
-10.9310095
-10.9264295
-10.9249095
-10.9233795
-10.9264295
-10.9264295
-10.9294895
-10.9294895
-10.9279595
-10.9264295
-10.9310095
-10.9325395
-10.9294895
-10.9294895
-10.9310095
-10.9294895
-10.9325395
-10.9294895
-10.9325395
-10.9325395
-10.9325395
-10.9325395
-10.9310095
-10.9310095
-10.9325395
-10.9310095
-10.9310095
-10.9294895
-10.9310095
-10.9325395
-10.9371195
-10.9325395
-10.9294895
-10.9264295
-10.9249095
-10.9264295
-10.9279595
-10.9264295
-10.9294895
-10.9264295
-10.9294895
-10.9279595
-10.9294895
-10.9249095
-10.9264295
-10.9264295
-10.9279595
-10.9264295
-10.9264295
-10.9279595
-10.9279595
-10.9264295
-10.9233795
-10.9249095
-10.9203295
-10.9233795
-10.9233795
-10.9249095
-10.9218595
-10.9218595
-10.9233795
-10.9249095
-10.9249095
-10.9264295
-10.9264295
-10.9264295
-10.9310095
-10.9279595
-10.9310095
-10.9325395
-10.9371195
-10.9325395
-10.9386395
-10.9416895
-10.9447495
-10.9447495
-10.9462695
-10.9462695
-10.9447495
-10.9462695
-10.9416895
-10.9401695
-10.9416895
-10.9386395
-10.9371195
-10.9371195
-10.9279595
-10.9264295
-10.9279595
-10.9249095
-10.9233795
-10.9203295
-10.9218595
-10.9233795
-10.9294895
-10.9325395
-10.9310095
-10.9325395
-10.9310095
-10.9310095
-10.9371195
-10.9340595
-10.9371195
-10.9325395
-10.9325395
-10.9401695
-10.9371195
-10.9386395
-10.9386395
-10.9386395
-10.9340595
-10.9386395
-10.9401695
-10.9340595
-10.9386395
-10.9310095
-10.9401695
-10.9340595
-10.9386395
-10.9294895
-10.9294895
-10.9294895
-10.9294895
-10.9294895
-10.9310095
-10.9325395
-10.9371195
-10.9310095
-10.9340595
-10.9401695
-10.9340595
-10.9371195
-10.9371195
-10.9371195
-10.9386395
-10.9371195
-10.9386395
-10.9386395
-10.9386395
-10.9325395
-10.9310095
-10.9340595
-10.9340595
-10.9340595
-10.9325395
-10.9401695
-10.9416895
-10.9386395
-10.9340595
-10.9401695
-10.9432195
-10.9371195
-10.9401695
-10.9401695
-10.9401695
-10.9386395
-10.9416895
-10.9432195
-10.9477995
-10.9462695
-10.9462695
-10.9462695
-10.9432195
-10.9432195
-10.9447495
-10.9432195
-10.9447495
-10.9432195
-10.9447495
-10.9386395
-10.9371195
-10.9310095
-10.9310095
-10.9294895
-10.9264295
-10.9310095
-10.9325395
-10.9340595
-10.9340595
-10.9416895
-10.9432195
-10.9386395
-10.9340595
-10.9401695
-10.9371195
-10.9416895
-10.9386395
-10.9340595
-10.9401695
-10.9401695
-10.9401695
-10.9371195
-10.9371195
-10.9386395
-10.9401695
-10.9432195
-10.9401695
-10.9416895
-10.9447495
-10.9477995
-10.9447495
-10.9432195
-10.9416895
-10.9416895
-10.9371195
-10.9401695
-10.9386395
-10.9371195
-10.9371195
-10.9371195
-10.9371195
-10.9371195
-10.9386395
-10.9371195
-10.9401695
-10.9416895
-10.9432195
-10.9401695
-10.9447495
-10.9401695
-10.9447495
-10.9432195
-10.9432195
-10.9416895
-10.9401695
-10.9401695
-10.9416895
-10.9416895
-10.9401695
-10.9462695
-10.9401695
-10.9401695
-10.9371195
-10.9401695
-10.9386395
-10.9401695
-10.9371195
-10.9416895
-10.9401695
-10.9401695
-10.9386395
-10.9416895
-10.9401695
-10.9386395
-10.9416895
-10.9386395
-10.9401695
-10.9401695
-10.9386395
-10.9386395
-10.9386395
-10.9371195
-10.9401695
-10.9416895
-10.9401695
-10.9432195
-10.9432195
-10.9447495
-10.9432195
-10.9447495
-10.9432195
-10.9493195
-10.9432195
-10.9447495
-10.9432195
-10.9447495
-10.9462695
-10.9447495
-10.9432195
-10.9416895
-10.9401695
-10.9416895
-10.9386395
-10.9416895
-10.9386395
-10.9401695
-10.9432195
-10.9447495
-10.9386395
-10.9447495
-10.9447495
-10.9416895
-10.9447495
-10.9432195
-10.9416895
-10.9462695
-10.9493195
-10.9508495
-10.9493195
-10.9493195
-10.9477995
-10.9477995
-10.9493195
-10.9462695
-10.9508495
-10.9477995
-10.9493195
-10.9447495
-10.9447495
-10.9462695
-10.9416895
-10.9401695
-10.9416895
-10.9477995
-10.9477995
-10.9493195
-10.9447495
-10.9447495
-10.9432195
-10.9401695
-10.9432195
-10.9401695
-10.9416895
-10.9416895
-10.9386395
-10.9371195
-10.9432195
-10.9371195
-10.9432195
-10.9401695
-10.9386395
-10.9340595
-10.9371195
-10.9386395
-10.9340595
-10.9416895
-10.9432195
-10.9462695
-10.9477995
-10.9523695
-10.9508495
-10.9523695
-10.9538995
-10.9493195
-10.9447495
-10.9447495
-10.9401695
-10.9432195
-10.9432195
-10.9386395
-10.9416895
-10.9371195
-10.9401695
-10.9386395
-10.9416895
-10.9386395
-10.9432195
-10.9416895
-10.9447495
-10.9477995
-10.9432195
-10.9416895
-10.9447495
-10.9462695
-10.9432195
-10.9447495
-10.9477995
-10.9447495
-10.9432195
-10.9432195
-10.9386395
-10.9432195
-10.9416895
-10.9462695
-10.9477995
-10.9462695
-10.9523695
-10.9493195
-10.9493195
-10.9477995
-10.9416895
-10.9416895
-10.9432195
-10.9416895
-10.9401695
-10.9432195
-10.9432195
-10.9432195
-10.9447495
-10.9477995
-10.9462695
-10.9432195
-10.9447495
-10.9432195
-10.9416895
-10.9447495
-10.9416895
-10.9447495
-10.9477995
-10.9462695
-10.9447495
-10.9416895
-10.9401695
-10.9371195
-10.9416895
-10.9447495
-10.9447495
-10.9416895
-10.9432195
-10.9432195
-10.9386395
-10.9416895
-10.9416895
-10.9462695
-10.9447495
-10.9462695
-10.9447495
-10.9462695
-10.9447495
-10.9477995
-10.9447495
-10.9477995
-10.9477995
-10.9477995
-10.9538995
-10.9584795
-10.9584795
-10.9538995
-10.9584795
-10.9554295
-10.9508495
-10.9477995
-10.9538995
-10.9523695
-10.9508495
-10.9493195
-10.9493195
-10.9416895
-10.9401695
-10.9432195
-10.9401695
-10.9386395
-10.9371195
-10.9401695
-10.9401695
-10.9447495
-10.9386395
-10.9386395
-10.9340595
-10.9325395
-10.9386395
-10.9340595
-10.9371195
-10.9340595
-10.9401695
-10.9447495
-10.9416895
-10.9401695
-10.9447495
-10.9477995
-10.9477995
-10.9462695
-10.9462695
-10.9462695
-10.9447495
-10.9447495
-10.9477995
-10.9447495
-10.9432195
-10.9462695
-10.9401695
-10.9432195
-10.9401695
-10.9447495
-10.9432195
-10.9416895
-10.9432195
-10.9401695
-10.9416895
-10.9447495
-10.9386395
-10.9386395
-10.9432195
-10.9493195
-10.9447495
-10.9447495
-10.9493195
-10.9462695
-10.9416895
-10.9416895
-10.9386395
-10.9401695
-10.9386395
-10.9401695
-10.9401695
-10.9401695
-10.9401695
-10.9416895
-10.9401695
-10.9386395
-10.9432195
-10.9371195
-10.9416895
-10.9371195
-10.9416895
-10.9416895
-10.9462695
-10.9432195
-10.9447495
-10.9477995
-10.9416895
-10.9401695
-10.9447495
-10.9432195
-10.9401695
-10.9416895
-10.9432195
-10.9416895
-10.9416895
-10.9416895
-10.9401695
-10.9340595
-10.9340595
-10.9325395
-10.9325395
-10.9340595
-10.9386395
-10.9325395
-10.9371195
-10.9371195
-10.9310095
-10.9310095
-10.9294895
-10.9325395
-10.9325395
-10.9386395
-10.9401695
-10.9401695
-10.9401695
-10.9432195
-10.9401695
-10.9416895
-10.9416895
-10.9432195
-10.9477995
-10.9447495
-10.9447495
-10.9477995
-10.9462695
-10.9477995
-10.9538995
-10.9554295
-10.9584795
-10.9554295
-10.9569495
-10.9584795
-10.9584795
-10.9554295
-10.9508495
-10.9462695
-10.9462695
-10.9401695
-10.9401695
-10.9432195
-10.9371195
-10.9371195
-10.9386395
-10.9386395
-10.9340595
-10.9340595
-10.9325395
-10.9325395
-10.9325395
-10.9401695
-10.9416895
-10.9386395
-10.9432195
-10.9401695
-10.9432195
-10.9401695
-10.9386395
-10.9401695
-10.9401695
-10.9416895
-10.9432195
-10.9401695
-10.9416895
-10.9386395
-10.9371195
-10.9371195
-10.9386395
-10.9371195
-10.9371195
-10.9386395
-10.9401695
-10.9416895
-10.9416895
-10.9401695
-10.9416895
-10.9401695
-10.9416895
-10.9447495
-10.9447495
-10.9447495
-10.9462695
-10.9462695
-10.9447495
-10.9416895
-10.9416895
-10.9432195
-10.9432195
-10.9386395
-10.9416895
-10.9432195
-10.9416895
-10.9386395
-10.9386395
-10.9432195
-10.9371195
-10.9432195
-10.9416895
-10.9401695
-10.9386395
-10.9432195
-10.9416895
-10.9416895
-10.9416895
-10.9432195
-10.9432195
-10.9416895
-10.9386395
-10.9386395
-10.9447495
-10.9432195
-10.9401695
-10.9416895
-10.9447495
-10.9432195
-10.9416895
-10.9477995
-10.9462695
-10.9432195
-10.9416895
-10.9416895
-10.9386395
-10.9386395
-10.9432195
-10.9432195
-10.9462695
-10.9447495
-10.9462695
-10.9447495
-10.9493195
-10.9477995
-10.9432195
-10.9401695
-10.9447495
-10.9416895
-10.9493195
-10.9477995
-10.9432195
-10.9432195
-10.9447495
-10.9416895
-10.9432195
-10.9386395
-10.9401695
-10.9432195
-10.9432195
-10.9447495
-10.9447495
-10.9447495
-10.9371195
-10.9401695
-10.9401695
-10.9386395
-10.9462695
-10.9432195
-10.9447495
-10.9401695
-10.9432195
-10.9432195
-10.9477995
-10.9493195
-10.9477995
-10.9462695
-10.9432195
-10.9447495
-10.9416895
-10.9447495
-10.9401695
-10.9401695
-10.9401695
-10.9416895
-10.9447495
-10.9432195
-10.9432195
-10.9416895
-10.9401695
-10.9386395
-10.9386395
-10.9340595
-10.9401695
-10.9386395
-10.9462695
-10.9447495
-10.9432195
-10.9416895
-10.9401695
-10.9386395
-10.9386395
-10.9386395
-10.9401695
-10.9386395
-10.9340595
-10.9416895
-10.9432195
-10.9477995
-10.9523695
-10.9523695
-10.9538995
-10.9538995
-10.9508495
-10.9508495
-10.9493195
-10.9493195
-10.9508495
-10.9432195
-10.9432195
-10.9416895
-10.9386395
-10.9371195
-10.9371195
-10.9340595
-10.9310095
-10.9386395
-10.9401695
-10.9386395
-10.9401695
-10.9432195
-10.9447495
-10.9432195
-10.9432195
-10.9447495
-10.9462695
-10.9508495
-10.9493195
-10.9493195
-10.9462695
-10.9477995
-10.9477995
-10.9477995
-10.9477995
-10.9462695
-10.9447495
-10.9462695
-10.9447495
-10.9447495
-10.9432195
-10.9462695
-10.9447495
-10.9477995
-10.9477995
-10.9493195
-10.9447495
-10.9462695
-10.9462695
-10.9477995
-10.9432195
-10.9416895
-10.9401695
-10.9416895
-10.9401695
-10.9447495
-10.9447495
-10.9432195
-10.9432195
-10.9447495
-10.9462695
-10.9477995
-10.9462695
-10.9432195
-10.9462695
-10.9447495
-10.9432195
-10.9462695
-10.9462695
-10.9447495
-10.9432195
-10.9462695
-10.9477995
-10.9462695
-10.9508495
-10.9569495
-10.9569495
-10.9584795
-10.9584795
-10.9569495
-10.9508495
-10.9508495
-10.9508495
-10.9447495
-10.9432195
-10.9416895
-10.9447495
-10.9477995
-10.9477995
-10.9477995
-10.9462695
-10.9477995
-10.9477995
-10.9432195
-10.9432195
-10.9416895
-10.9416895
-10.9416895
-10.9432195
-10.9416895
-10.9447495
-10.9432195
-10.9432195
-10.9401695
-10.9416895
-10.9416895
-10.9447495
-10.9447495
-10.9447495
-10.9477995
-10.9523695
-10.9508495
-10.9523695
-10.9508495
-10.9493195
-10.9477995
-10.9477995
-10.9462695
-10.9508495
-10.9493195
-10.9508495
-10.9538995
-10.9523695
-10.9508495
-10.9508495
-10.9493195
-10.9462695
-10.9462695
-10.9416895
-10.9416895
-10.9371195
-10.9340595
-10.9386395
-10.9401695
-10.9371195
-10.9401695
-10.9447495
-10.9432195
-10.9432195
-10.9432195
-10.9386395
-10.9371195
-10.9401695
-10.9371195
-10.9401695
-10.9386395
-10.9401695
-10.9432195
-10.9447495
-10.9477995
-10.9432195
-10.9416895
-10.9386395
-10.9386395
-10.9386395
-10.9432195
-10.9462695
-10.9477995
-10.9493195
-10.9447495
-10.9477995
-10.9432195
-10.9462695
-10.9432195
-10.9493195
-10.9477995
-10.9462695
-10.9447495
-10.9477995
-10.9462695
-10.9462695
-10.9493195
-10.9432195
-10.9432195
-10.9432195
-10.9447495
-10.9401695
-10.9401695
-10.9447495
-10.9416895
-10.9386395
-10.9401695
-10.9416895
-10.9386395
-10.9401695
-10.9401695
-10.9447495
-10.9432195
-10.9523695
-10.9447495
-10.9477995
-10.9493195
-10.9508495
-10.9508495
-10.9493195
-10.9493195
-10.9462695
-10.9462695
-10.9462695
-10.9447495
-10.9416895
-10.9401695
-10.9401695
-10.9371195
-10.9340595
-10.9401695
-10.9416895
-10.9462695
-10.9432195
-10.9447495
-10.9432195
-10.9416895
-10.9462695
-10.9432195
-10.9432195
-10.9447495
-10.9477995
-10.9523695
-10.9493195
-10.9523695
-10.9493195
-10.9523695
-10.9493195
-10.9508495
-10.9477995
-10.9477995
-10.9416895
-10.9477995
-10.9462695
-10.9477995
-10.9432195
-10.9432195
-10.9432195
-10.9401695
-10.9462695
-10.9432195
-10.9462695
-10.9416895
-10.9493195
-10.9462695
-10.9462695
-10.9447495
-10.9447495
-10.9447495
-10.9462695
-10.9462695
-10.9477995
-10.9477995
-10.9508495
-10.9493195
-10.9477995
-10.9523695
-10.9493195
-10.9493195
-10.9432195
-10.9462695
-10.9447495
-10.9432195
-10.9416895
-10.9432195
-10.9432195
-10.9416895
-10.9447495
-10.9462695
-10.9477995
-10.9447495
-10.9447495
-10.9432195
-10.9416895
-10.9416895
-10.9462695
-10.9508495
-10.9493195
-10.9493195
-10.9477995
-10.9462695
-10.9462695
-10.9477995
-10.9447495
-10.9493195
-10.9493195
-10.9462695
-10.9508495
-10.9447495
-10.9432195
-10.9432195
-10.9493195
-10.9493195
-10.9477995
-10.9477995
-10.9477995
-10.9432195
-10.9477995
-10.9462695
-10.9477995
-10.9508495
-10.9432195
-10.9462695
-10.9462695
-10.9432195
-10.9462695
-10.9432195
-10.9416895
-10.9462695
-10.9416895
-10.9477995
-10.9432195
-10.9416895
-10.9477995
-10.9477995
-10.9477995
-10.9432195
-10.9447495
-10.9462695
-10.9462695
-10.9493195
-10.9493195
-10.9493195
-10.9508495
-10.9477995
-10.9462695
-10.9462695
-10.9477995
-10.9447495
-10.9432195
-10.9462695
-10.9477995
-10.9447495
-10.9462695
-10.9523695
-10.9462695
-10.9447495
-10.9416895
-10.9401695
-10.9416895
-10.9386395
-10.9416895
-10.9416895
-10.9447495
-10.9447495
-10.9447495
-10.9462695
-10.9508495
-10.9477995
-10.9493195
-10.9477995
-10.9432195
-10.9447495
-10.9432195
-10.9477995
-10.9432195
-10.9462695
-10.9447495
-10.9462695
-10.9432195
-10.9447495
-10.9477995
-10.9447495
-10.9432195
-10.9477995
-10.9493195
-10.9462695
-10.9432195
-10.9432195
-10.9493195
-10.9477995
-10.9462695
-10.9462695
-10.9477995
-10.9477995
-10.9493195
-10.9508495
-10.9508495
-10.9508495
-10.9447495
-10.9508495
-10.9508495
-10.9493195
-10.9462695
-10.9538995
-10.9401695
-10.9462695
-10.9493195
-10.9493195
-10.9477995
-10.9462695
-10.9477995
-10.9477995
-10.9508495
-10.9508495
-10.9508495
-10.9493195
-10.9493195
-10.9447495
-10.9493195
-10.9477995
-10.9416895
-10.9462695
-10.9432195
-10.9462695
-10.9416895
-10.9432195
-10.9432195
-10.9416895
-10.9401695
-10.9432195
-10.9416895
-10.9386395
-10.9447495
-10.9462695
-10.9477995
-10.9462695
-10.9508495
-10.9462695
-10.9462695
-10.9462695
-10.9462695
-10.9447495
-10.9432195
-10.9477995
-10.9432195
-10.9462695
-10.9508495
-10.9493195
-10.9477995
-10.9493195
-10.9462695
-10.9462695
-10.9462695
-10.9477995
-10.9447495
-10.9432195
-10.9447495
-10.9447495
-10.9462695
-10.9447495
-10.9477995
-10.9462695
-10.9447495
-10.9432195
-10.9493195
-10.9493195
-10.9462695
-10.9493195
-10.9493195
-10.9508495
-10.9538995
-10.9523695
-10.9493195
-10.9538995
-10.9538995
-10.9554295
-10.9523695
-10.9508495
-10.9462695
-10.9477995
-10.9477995
-10.9477995
-10.9523695
-10.9493195
-10.9493195
-10.9477995
-10.9477995
-10.9477995
-10.9477995
-10.9432195
-10.9447495
-10.9447495
-10.9432195
-10.9462695
-10.9416895
-10.9477995
-10.9447495
-10.9477995
-10.9493195
-10.9523695
-10.9477995
-10.9477995
-10.9477995
-10.9477995
-10.9432195
-10.9401695
-10.9447495
-10.9416895
-10.9401695
-10.9386395
-10.9416895
-10.9401695
-10.9447495
-10.9432195
-10.9432195
-10.9493195
-10.9493195
-10.9493195
-10.9493195
-10.9477995
-10.9462695
-10.9432195
-10.9462695
-10.9462695
-10.9477995
-10.9493195
-10.9447495
-10.9462695
-10.9416895
-10.9462695
-10.9477995
-10.9477995
-10.9493195
-10.9477995
-10.9462695
-10.9477995
-10.9508495
-10.9493195
-10.9462695
-10.9493195
-10.9508495
-10.9508495
-10.9508495
-10.9447495
-10.9432195
-10.9447495
-10.9432195
-10.9401695
-10.9401695
-10.9416895
-10.9386395
-10.9416895
-10.9401695
-10.9432195
-10.9386395
-10.9432195
-10.9447495
-10.9493195
-10.9508495
-10.9462695
-10.9462695
-10.9477995
-10.9477995
-10.9523695
-10.9538995
-10.9523695
-10.9523695
-10.9508495
-10.9508495
-10.9538995
-10.9493195
-10.9493195
-10.9508495
-10.9523695
-10.9493195
-10.9493195
-10.9538995
-10.9523695
-10.9493195
-10.9538995
-10.9554295
-10.9523695
-10.9538995
-10.9523695
-10.9523695
-10.9477995
-10.9477995
-10.9447495
-10.9477995
-10.9477995
-10.9477995
-10.9493195
-10.9508495
-10.9447495
-10.9462695
-10.9508495
-10.9447495
-10.9447495
-10.9447495
-10.9432195
-10.9416895
-10.9462695
-10.9508495
-10.9538995
-10.9523695
-10.9508495
-10.9477995
-10.9477995
-10.9508495
-10.9477995
-10.9493195
-10.9477995
-10.9508495
-10.9477995
-10.9447495
-10.9462695
-10.9508495
-10.9493195
-10.9462695
-10.9508495
-10.9447495
-10.9432195
-10.9462695
-10.9416895
-10.9386395
-10.9447495
-10.9508495
-10.9523695
-10.9477995
-10.9493195
-10.9523695
-10.9462695
-10.9493195
-10.9477995
-10.9493195
-10.9508495
-10.9447495
-10.9386395
-10.9416895
-10.9477995
-10.9508495
-10.9538995
-10.9523695
-10.9569495
-10.9554295
-10.9569495
-10.9554295
-10.9569495
-10.9569495
-10.9584795
-10.9615295
-10.9615295
-10.9676295
-10.9706895
-10.9615295
-10.9615295
-10.9615295
-10.9554295
-10.9569495
-10.9508495
-10.9538995
-10.9523695
-10.9523695
-10.9554295
-10.9508495
-10.9493195
-10.9447495
-10.9493195
-10.9493195
-10.9477995
-10.9477995
-10.9508495
-10.9462695
-10.9477995
-10.9477995
-10.9493195
-10.9477995
-10.9493195
-10.9477995
-10.9508495
-10.9508495
-10.9477995
-10.9477995
-10.9447495
-10.9493195
-10.9462695
-10.9477995
-10.9432195
-10.9462695
-10.9462695
-10.9447495
-10.9447495
-10.9477995
-10.9493195
-10.9477995
-10.9523695
-10.9508495
-10.9508495
-10.9447495
-10.9447495
-10.9447495
-10.9493195
-10.9508495
-10.9538995
-10.9477995
-10.9508495
-10.9477995
-10.9477995
-10.9508495
-10.9493195
-10.9538995
-10.9462695
-10.9447495
-10.9477995
-10.9462695
-10.9447495
-10.9493195
-10.9462695
-10.9477995
-10.9493195
-10.9447495
-10.9462695
-10.9462695
-10.9432195
-10.9462695
-10.9508495
-10.9523695
-10.9508495
-10.9447495
-10.9493195
-10.9508495
-10.9508495
-10.9523695
-10.9523695
-10.9584795
-10.9538995
-10.9554295
-10.9569495
-10.9538995
-10.9569495
-10.9538995
-10.9523695
-10.9508495
-10.9477995
-10.9493195
-10.9538995
-10.9477995
-10.9523695
-10.9477995
-10.9508495
-10.9493195
-10.9508495
-10.9477995
-10.9554295
-10.9538995
-10.9538995
-10.9584795
-10.9538995
-10.9523695
-10.9538995
-10.9538995
-10.9523695
-10.9569495
-10.9508495
-10.9508495
-10.9523695
-10.9523695
-10.9554295
-10.9554295
-10.9599995
-10.9584795
-10.9615295
-10.9615295
-10.9599995
-10.9569495
-10.9554295
-10.9523695
-10.9523695
-10.9554295
-10.9599995
-10.9599995
-10.9569495
-10.9554295
-10.9538995
-10.9569495
-10.9538995
-10.9554295
-10.9538995
-10.9523695
-10.9584795
-10.9569495
-10.9569495
-10.9569495
-10.9538995
-10.9508495
-10.9508495
-10.9538995
-10.9508495
-10.9508495
-10.9523695
-10.9523695
-10.9554295
-10.9569495
-10.9584795
-10.9523695
-10.9493195
-10.9508495
-10.9477995
-10.9477995
-10.9523695
-10.9538995
-10.9523695
-10.9508495
-10.9462695
-10.9477995
-10.9477995
-10.9493195
-10.9462695
-10.9477995
-10.9523695
-10.9493195
-10.9508495
-10.9523695
-10.9569495
-10.9523695
-10.9523695
-10.9554295
-10.9523695
-10.9477995
-10.9477995
-10.9523695
-10.9477995
-10.9523695
-10.9493195
-10.9523695
-10.9493195
-10.9523695
-10.9508495
-10.9508495
-10.9538995
-10.9538995
-10.9523695
-10.9538995
-10.9523695
-10.9508495
-10.9493195
-10.9508495
-10.9493195
-10.9462695
-10.9477995
-10.9477995
-10.9447495
-10.9493195
-10.9493195
-10.9493195
-10.9493195
-10.9493195
-10.9493195
-10.9508495
-10.9508495
-10.9538995
-10.9538995
-10.9523695
-10.9508495
-10.9508495
-10.9508495
-10.9508495
-10.9508495
-10.9508495
-10.9538995
-10.9508495
-10.9493195
-10.9508495
-10.9538995
-10.9523695
-10.9508495
-10.9493195
-10.9477995
-10.9477995
-10.9477995
-10.9477995
-10.9477995
-10.9523695
-10.9477995
-10.9508495
-10.9493195
-10.9493195
-10.9508495
-10.9477995
-10.9523695
-10.9554295
-10.9554295
-10.9554295
-10.9599995
-10.9584795
-10.9584795
-10.9569495
-10.9569495
-10.9584795
-10.9584795
-10.9569495
-10.9569495
-10.9584795
-10.9584795
-10.9584795
-10.9569495
-10.9569495
-10.9508495
-10.9538995
-10.9462695
-10.9477995
-10.9508495
-10.9523695
-10.9493195
-10.9462695
-10.9462695
-10.9477995
-10.9477995
-10.9493195
-10.9508495
-10.9477995
-10.9477995
-10.9477995
-10.9477995
-10.9477995
-10.9538995
-10.9508495
-10.9477995
-10.9416895
-10.9477995
-10.9462695
-10.9462695
-10.9462695
-10.9447495
-10.9493195
-10.9538995
-10.9584795
-10.9523695
-10.9523695
-10.9523695
-10.9508495
-10.9523695
-10.9493195
-10.9462695
-10.9477995
-10.9508495
-10.9493195
-10.9508495
-10.9508495
-10.9569495
-10.9584795
-10.9569495
-10.9584795
-10.9615295
-10.9569495
-10.9554295
-10.9538995
-10.9538995
-10.9538995
-10.9523695
-10.9584795
-10.9523695
-10.9554295
-10.9493195
-10.9477995
-10.9477995
-10.9447495
-10.9477995
-10.9401695
-10.9462695
-10.9432195
-10.9477995
-10.9508495
-10.9523695
-10.9508495
-10.9523695
-10.9554295
-10.9554295
-10.9523695
-10.9538995
-10.9538995
-10.9538995
-10.9584795
-10.9538995
-10.9554295
-10.9508495
-10.9493195
-10.9508495
-10.9508495
-10.9554295
-10.9508495
-10.9538995
-10.9554295
-10.9523695
-10.9523695
-10.9569495
-10.9554295
-10.9569495
-10.9569495
-10.9569495
-10.9554295
-10.9538995
-10.9554295
-10.9554295
-10.9538995
-10.9477995
-10.9493195
-10.9462695
-10.9508495
-10.9508495
-10.9493195
-10.9508495
-10.9508495
-10.9493195
-10.9508495
-10.9538995
-10.9523695
-10.9569495
-10.9584795
-10.9554295
-10.9523695
-10.9554295
-10.9538995
-10.9508495
-10.9523695
-10.9523695
-10.9508495
-10.9508495
-10.9432195
-10.9462695
-10.9477995
-10.9477995
-10.9477995
-10.9493195
-10.9508495
-10.9477995
-10.9493195
-10.9508495
-10.9508495
-10.9523695
-10.9508495
-10.9508495
-10.9569495
-10.9615295
-10.9615295
-10.9599995
-10.9599995
-10.9599995
-10.9615295
-10.9599995
-10.9599995
-10.9584795
-10.9630595
-10.9584795
-10.9508495
-10.9493195
-10.9477995
-10.9477995
-10.9462695
-10.9447495
-10.9508495
-10.9477995
-10.9477995
-10.9477995
-10.9493195
-10.9508495
-10.9508495
-10.9523695
-10.9508495
-10.9569495
-10.9554295
-10.9538995
-10.9508495
-10.9508495
-10.9508495
-10.9523695
-10.9508495
-10.9493195
-10.9477995
-10.9538995
-10.9493195
-10.9508495
-10.9523695
-10.9554295
-10.9554295
-10.9554295
-10.9569495
-10.9554295
-10.9569495
-10.9615295
-10.9584795
-10.9584795
-10.9599995
-10.9584795
-10.9554295
-10.9584795
-10.9584795
-10.9569495
-10.9523695
-10.9523695
-10.9523695
-10.9523695
-10.9523695
-10.9569495
-10.9538995
-10.9523695
-10.9538995
-10.9508495
-10.9554295
-10.9523695
-10.9554295
-10.9554295
-10.9538995
-10.9538995
-10.9538995
-10.9538995
-10.9538995
-10.9538995
-10.9523695
-10.9523695
-10.9569495
-10.9645795
-10.9599995
-10.9554295
-10.9569495
-10.9584795
-10.9584795
-10.9554295
-10.9554295
-10.9584795
-10.9554295
-10.9523695
-10.9523695
-10.9523695
-10.9523695
-10.9554295
-10.9508495
-10.9508495
-10.9508495
-10.9538995
-10.9462695
-10.9493195
-10.9523695
-10.9554295
-10.9493195
-10.9508495
-10.9508495
-10.9493195
-10.9523695
-10.9538995
-10.9493195
-10.9493195
-10.9538995
-10.9538995
-10.9493195
-10.9493195
-10.9523695
-10.9523695
-10.9523695
-10.9554295
-10.9554295
-10.9538995
-10.9599995
-10.9615295
-10.9584795
-10.9554295
-10.9569495
-10.9554295
-10.9584795
-10.9615295
-10.9569495
-10.9569495
-10.9584795
-10.9615295
-10.9554295
-10.9554295
-10.9569495
-10.9584795
-10.9554295
-10.9523695
-10.9523695
-10.9508495
-10.9538995
-10.9523695
-10.9538995
-10.9538995
-10.9538995
-10.9554295
-10.9554295
-10.9569495
-10.9584795
-10.9599995
-10.9599995
-10.9599995
-10.9615295
-10.9615295
-10.9599995
-10.9599995
-10.9584795
-10.9599995
-10.9554295
-10.9615295
-10.9599995
-10.9599995
-10.9569495
-10.9569495
-10.9569495
-10.9599995
-10.9554295
-10.9508495
-10.9569495
-10.9569495
-10.9569495
-10.9615295
-10.9599995
-10.9645795
-10.9615295
-10.9615295
-10.9615295
-10.9599995
-10.9554295
-10.9584795
-10.9599995
-10.9630595
-10.9599995
-10.9569495
-10.9538995
-10.9538995
-10.9508495
-10.9569495
-10.9554295
-10.9538995
-10.9554295
-10.9538995
-10.9538995
-10.9477995
-10.9538995
-10.9523695
-10.9554295
-10.9554295
-10.9569495
-10.9599995
-10.9645795
-10.9569495
-10.9569495
-10.9584795
-10.9538995
-10.9554295
-10.9554295
-10.9554295
-10.9584795
-10.9569495
-10.9584795
-10.9630595
-10.9538995
-10.9523695
-10.9554295
-10.9554295
-10.9538995
-10.9569495
-10.9569495
-10.9554295
-10.9569495
-10.9569495
-10.9538995
-10.9569495
-10.9554295
-10.9554295
-10.9569495
-10.9630595
-10.9584795
-10.9599995
-10.9584795
-10.9599995
-10.9584795
-10.9584795
-10.9569495
-10.9569495
-10.9523695
-10.9569495
-10.9554295
-10.9584795
-10.9615295
-10.9599995
-10.9630595
-10.9615295
-10.9615295
-10.9584795
-10.9584795
-10.9630595
-10.9599995
-10.9584795
-10.9584795
-10.9554295
-10.9554295
-10.9599995
-10.9569495
-10.9584795
-10.9523695
-10.9538995
-10.9569495
-10.9599995
-10.9615295
-10.9599995
-10.9584795
-10.9599995
-10.9584795
-10.9599995
-10.9615295
-10.9584795
-10.9554295
-10.9584795
-10.9599995
-10.9569495
-10.9569495
-10.9538995
-10.9569495
-10.9584795
-10.9584795
-10.9599995
-10.9569495
-10.9569495
-10.9584795
-10.9569495
-10.9538995
-10.9569495
-10.9538995
-10.9569495
-10.9569495
-10.9615295
-10.9584795
-10.9554295
-10.9584795
-10.9569495
-10.9599995
-10.9554295
-10.9554295
-10.9554295
-10.9584795
-10.9584795
-10.9569495
-10.9630595
-10.9615295
-10.9584795
-10.9569495
-10.9569495
-10.9569495
-10.9599995
-10.9599995
-10.9599995
-10.9584795
-10.9584795
-10.9615295
-10.9676295
-10.9615295
-10.9584795
-10.9615295
-10.9599995
-10.9584795
-10.9554295
-10.9584795
-10.9584795
-10.9630595
-10.9599995
-10.9584795
-10.9599995
-10.9599995
-10.9599995
-10.9599995
-10.9615295
-10.9584795
-10.9599995
-10.9630595
-10.9691595
-10.9691595
-10.9630595
-10.9691595
-10.9645795
-10.9615295
-10.9630595
-10.9599995
-10.9584795
-10.9584795
-10.9584795
-10.9645795
-10.9584795
-10.9691595
-10.9645795
-10.9630595
-10.9630595
-10.9599995
-10.9615295
-10.9645795
-10.9645795
-10.9676295
-10.9691595
-10.9630595
-10.9584795
-10.9615295
-10.9599995
-10.9615295
-10.9615295
-10.9599995
-10.9615295
-10.9584795
-10.9554295
-10.9584795
-10.9538995
-10.9538995
-10.9538995
-10.9599995
-10.9554295
-10.9538995
-10.9569495
-10.9569495
-10.9584795
-10.9615295
-10.9569495
-10.9538995
-10.9569495
-10.9554295
-10.9584795
-10.9584795
-10.9538995
-10.9569495
-10.9569495
-10.9569495
-10.9569495
-10.9554295
-10.9599995
-10.9615295
-10.9645795
-10.9691595
-10.9676295
-10.9737395
-10.9737395
-10.9691595
-10.9691595
-10.9691595
-10.9722095
-10.9691595
-10.9737395
-10.9722095
-10.9706895
-10.9676295
-10.9706895
-10.9691595
-10.9645795
-10.9630595
-10.9615295
-10.9599995
-10.9599995
-10.9615295
-10.9676295
-10.9615295
-10.9630595
-10.9599995
-10.9615295
-10.9615295
-10.9569495
-10.9584795
-10.9584795
-10.9630595
-10.9645795
-10.9569495
-10.9584795
-10.9569495
-10.9538995
-10.9554295
-10.9569495
-10.9538995
-10.9554295
-10.9584795
-10.9554295
-10.9554295
-10.9584795
-10.9569495
-10.9584795
-10.9554295
-10.9599995
-10.9599995
-10.9554295
-10.9569495
-10.9615295
-10.9676295
-10.9645795
-10.9645795
-10.9645795
-10.9630595
-10.9630595
-10.9569495
-10.9569495
-10.9554295
-10.9599995
-10.9538995
-10.9569495
-10.9554295
-10.9584795
-10.9569495
-10.9584795
-10.9569495
-10.9569495
-10.9584795
-10.9615295
-10.9569495
-10.9599995
-10.9599995
-10.9584795
-10.9599995
-10.9569495
-10.9615295
-10.9569495
-10.9599995
-10.9554295
-10.9538995
-10.9584795
-10.9584795
-10.9569495
-10.9615295
-10.9630595
-10.9599995
-10.9615295
-10.9584795
-10.9615295
-10.9615295
-10.9630595
-10.9599995
-10.9615295
-10.9569495
-10.9584795
-10.9645795
-10.9584795
-10.9630595
-10.9630595
-10.9645795
-10.9599995
-10.9615295
-10.9599995
-10.9615295
-10.9630595
-10.9630595
-10.9676295
-10.9630595
-10.9599995
-10.9599995
-10.9584795
-10.9554295
-10.9523695
-10.9538995
-10.9615295
-10.9599995
-10.9569495
-10.9569495
-10.9615295
-10.9584795
-10.9599995
-10.9645795
-10.9630595
-10.9599995
-10.9599995
-10.9630595
-10.9599995
-10.9599995
-10.9584795
-10.9569495
-10.9615295
-10.9569495
-10.9584795
-10.9584795
-10.9599995
-10.9584795
-10.9584795
-10.9599995
-10.9615295
-10.9569495
-10.9599995
-10.9554295
-10.9569495
-10.9554295
-10.9569495
-10.9569495
-10.9554295
-10.9599995
-10.9599995
-10.9615295
-10.9599995
-10.9599995
-10.9599995
-10.9584795
-10.9615295
-10.9584795
-10.9599995
-10.9584795
-10.9554295
-10.9554295
-10.9584795
-10.9538995
-10.9569495
-10.9554295
-10.9538995
-10.9554295
-10.9554295
-10.9599995
-10.9615295
-10.9584795
-10.9554295
-10.9599995
-10.9569495
-10.9584795
-10.9554295
-10.9584795
-10.9584795
-10.9584795
-10.9584795
-10.9584795
-10.9584795
-10.9569495
-10.9569495
-10.9599995
-10.9615295
-10.9538995
-10.9615295
-10.9630595
-10.9630595
-10.9630595
-10.9615295
-10.9599995
-10.9599995
-10.9599995
-10.9706895
-10.9645795
-10.9584795
-10.9645795
-10.9645795
-10.9645795
-10.9615295
-10.9630595
-10.9584795
-10.9584795
-10.9630595
-10.9645795
-10.9615295
-10.9645795
-10.9630595
-10.9615295
-10.9630595
-10.9599995
-10.9645795
-10.9645795
-10.9676295
-10.9645795
-10.9615295
-10.9615295
-10.9615295
-10.9584795
-10.9599995
-10.9645795
-10.9630595
-10.9569495
-10.9569495
-10.9630595
-10.9615295
-10.9630595
-10.9645795
-10.9630595
-10.9645795
-10.9645795
-10.9599995
-10.9615295
-10.9645795
-10.9599995
-10.9676295
-10.9645795
-10.9691595
-10.9645795
-10.9645795
-10.9630595
-10.9615295
-10.9599995
-10.9615295
-10.9630595
-10.9599995
-10.9599995
-10.9569495
-10.9569495
-10.9584795
-10.9584795
-10.9538995
-10.9584795
-10.9599995
-10.9569495
-10.9538995
-10.9538995
-10.9569495
-10.9569495
-10.9599995
-10.9630595
-10.9599995
-10.9569495
-10.9584795
-10.9584795
-10.9584795
-10.9584795
-10.9599995
-10.9615295
-10.9599995
-10.9615295
-10.9599995
-10.9599995
-10.9569495
-10.9599995
-10.9584795
-10.9569495
-10.9569495
-10.9554295
-10.9630595
-10.9645795
-10.9615295
-10.9554295
-10.9599995
-10.9584795
-10.9615295
-10.9615295
-10.9599995
-10.9599995
-10.9645795
-10.9645795
-10.9645795
-10.9615295
-10.9599995
-10.9615295
-10.9599995
-10.9569495
-10.9569495
-10.9584795
-10.9569495
-10.9599995
-10.9599995
-10.9584795
-10.9569495
-10.9630595
-10.9645795
-10.9691595
-10.9691595
-10.9706895
-10.9706895
-10.9691595
-10.9691595
-10.9630595
-10.9630595
-10.9599995
-10.9569495
-10.9584795
-10.9569495
-10.9569495
-10.9554295
-10.9523695
-10.9523695
-10.9538995
-10.9523695
-10.9554295
-10.9538995
-10.9523695
-10.9554295
-10.9523695
-10.9584795
-10.9538995
-10.9554295
-10.9523695
-10.9523695
-10.9538995
-10.9554295
-10.9523695
-10.9538995
-10.9523695
-10.9538995
-10.9493195
-10.9538995
-10.9508495
-10.9569495
-10.9599995
-10.9538995
-10.9599995
-10.9554295
-10.9584795
-10.9554295
-10.9584795
-10.9538995
-10.9569495
-10.9615295
-10.9584795
-10.9569495
-10.9584795
-10.9569495
-10.9538995
-10.9584795
-10.9569495
-10.9554295
-10.9615295
-10.9599995
-10.9599995
-10.9599995
-10.9615295
-10.9615295
-10.9584795
-10.9584795
-10.9615295
-10.9615295
-10.9615295
-10.9645795
-10.9630595
-10.9645795
-10.9615295
-10.9615295
-10.9615295
-10.9599995
-10.9569495
-10.9569495
-10.9584795
-10.9584795
-10.9554295
-10.9569495
-10.9538995
-10.9554295
-10.9554295
-10.9569495
-10.9538995
-10.9599995
-10.9599995
-10.9599995
-10.9599995
-10.9569495
-10.9615295
-10.9554295
-10.9599995
-10.9615295
-10.9584795
-10.9584795
-10.9538995
-10.9584795
-10.9584795
-10.9569495
-10.9569495
-10.9615295
-10.9584795
-10.9630595
-10.9599995
-10.9630595
-10.9599995
-10.9599995
-10.9584795
-10.9599995
-10.9599995
-10.9630595
-10.9569495
-10.9554295
-10.9584795
-10.9523695
-10.9538995
-10.9554295
-10.9538995
-10.9554295
-10.9569495
-10.9584795
-10.9584795
-10.9584795
-10.9584795
-10.9584795
-10.9599995
-10.9584795
-10.9554295
-10.9584795
-10.9569495
-10.9599995
-10.9569495
-10.9554295
-10.9554295
-10.9508495
-10.9569495
-10.9599995
-10.9538995
-10.9569495
-10.9615295
-10.9554295
-10.9584795
-10.9599995
-10.9599995
-10.9584795
-10.9569495
-10.9615295
-10.9538995
-10.9599995
-10.9584795
-10.9569495
-10.9554295
-10.9584795
-10.9569495
-10.9584795
-10.9584795
-10.9599995
-10.9554295
-10.9554295
-10.9554295
-10.9584795
-10.9538995
-10.9569495
-10.9569495
-10.9538995
-10.9569495
-10.9584795
-10.9584795
-10.9584795
-10.9584795
-10.9615295
-10.9584795
-10.9569495
-10.9569495
-10.9599995
-10.9584795
-10.9676295
-10.9584795
-10.9615295
-10.9630595
-10.9615295
-10.9584795
-10.9599995
-10.9599995
-10.9584795
-10.9554295
-10.9554295
-10.9584795
-10.9599995
-10.9615295
-10.9584795
-10.9615295
-10.9630595
-10.9630595
-10.9615295
-10.9599995
-10.9630595
-10.9584795
-10.9599995
-10.9615295
-10.9615295
-10.9584795
-10.9630595
-10.9599995
-10.9599995
-10.9569495
-10.9584795
-10.9584795
-10.9584795
-10.9569495
-10.9599995
-10.9584795
-10.9569495
-10.9615295
-10.9584795
-10.9569495
-10.9554295
-10.9584795
-10.9584795
-10.9584795
-10.9599995
-10.9569495
-10.9584795
-10.9599995
-10.9615295
-10.9599995
-10.9599995
-10.9538995
-10.9554295
-10.9584795
-10.9599995
-10.9569495
-10.9569495
-10.9615295
-10.9584795
-10.9554295
-10.9615295
-10.9676295
-10.9615295
-10.9615295
-10.9569495
-10.9599995
-10.9599995
-10.9584795
-10.9615295
-10.9584795
-10.9615295
-10.9599995
-10.9584795
-10.9584795
-10.9630595
-10.9599995
-10.9630595
-10.9615295
-10.9584795
-10.9584795
-10.9569495
-10.9599995
-10.9584795
-10.9615295
-10.9645795
-10.9615295
-10.9584795
-10.9615295
-10.9569495
-10.9584795
-10.9584795
-10.9569495
-10.9569495
-10.9569495
-10.9508495
-10.9538995
-10.9584795
-10.9584795
-10.9599995
-10.9554295
-10.9599995
-10.9554295
-10.9584795
-10.9569495
-10.9569495
-10.9584795
-10.9554295
-10.9584795
-10.9615295
-10.9615295
-10.9615295
-10.9615295
-10.9615295
-10.9676295
-10.9645795
-10.9722095
-10.9676295
-10.9722095
-10.9722095
-10.9737395
-10.9752595
-10.9706895
-10.9676295
-10.9630595
-10.9615295
-10.9630595
-10.9615295
-10.9584795
-10.9599995
-10.9599995
-10.9569495
-10.9584795
-10.9523695
-10.9508495
-10.9554295
-10.9508495
-10.9569495
-10.9538995
-10.9538995
-10.9584795
-10.9569495
-10.9554295
-10.9538995
-10.9569495
-10.9584795
-10.9584795
-10.9615295
-10.9615295
-10.9569495
-10.9569495
-10.9554295
-10.9569495
-10.9599995
-10.9599995
-10.9615295
-10.9630595
-10.9645795
-10.9645795
-10.9599995
-10.9599995
-10.9615295
-10.9599995
-10.9569495
-10.9599995
-10.9630595
-10.9676295
-10.9630595
-10.9645795
-10.9599995
-10.9615295
-10.9630595
-10.9615295
-10.9599995
-10.9569495
-10.9569495
-10.9569495
-10.9584795
-10.9569495
-10.9599995
-10.9584795
-10.9599995
-10.9615295
-10.9615295
-10.9599995
-10.9554295
-10.9493195
-10.9538995
-10.9569495
-10.9523695
-10.9584795
-10.9584795
-10.9676295
-10.9706895
-10.9722095
-10.9737395
-10.9722095
-10.9737395
-10.9737395
-10.9722095
-10.9706895
-10.9691595
-10.9630595
-10.9630595
-10.9615295
-10.9630595
-10.9615295
-10.9584795
-10.9615295
-10.9584795
-10.9554295
-10.9569495
-10.9554295
-10.9523695
-10.9538995
-10.9523695
-10.9584795
-10.9538995
-10.9569495
-10.9599995
-10.9645795
-10.9645795
-10.9630595
-10.9630595
-10.9599995
-10.9676295
-10.9645795
-10.9645795
-10.9645795
-10.9599995
-10.9630595
-10.9630595
-10.9645795
-10.9630595
-10.9630595
-10.9645795
-10.9584795
-10.9584795
-10.9569495
-10.9508495
-10.9554295
-10.9538995
-10.9569495
-10.9584795
-10.9554295
-10.9569495
-10.9554295
-10.9599995
-10.9584795
-10.9615295
-10.9584795
-10.9630595
-10.9584795
-10.9615295
-10.9630595
-10.9630595
-10.9615295
-10.9615295
-10.9615295
-10.9615295
-10.9584795
-10.9615295
-10.9615295
-10.9554295
-10.9584795
-10.9584795
-10.9615295
-10.9584795
-10.9554295
-10.9615295
-10.9584795
-10.9584795
-10.9569495
-10.9569495
-10.9615295
-10.9584795
-10.9615295
-10.9599995
-10.9599995
-10.9584795
-10.9554295
-10.9569495
-10.9584795
-10.9584795
-10.9584795
-10.9615295
-10.9615295
-10.9584795
-10.9615295
-10.9630595
-10.9691595
-10.9630595
-10.9676295
-10.9584795
-10.9615295
-10.9615295
-10.9569495
-10.9569495
-10.9599995
-10.9630595
-10.9569495
-10.9569495
-10.9554295
-10.9569495
-10.9554295
-10.9554295
-10.9523695
-10.9523695
-10.9569495
-10.9569495
-10.9569495
-10.9569495
-10.9599995
-10.9584795
-10.9630595
-10.9630595
-10.9645795
-10.9630595
-10.9691595
-10.9691595
-10.9691595
-10.9722095
-10.9767895
-10.9752595
-10.9722095
-10.9737395
-10.9691595
-10.9706895
-10.9691595
-10.9691595
-10.9645795
-10.9706895
-10.9691595
-10.9676295
-10.9676295
-10.9676295
-10.9630595
-10.9645795
-10.9645795
-10.9615295
-10.9615295
-10.9615295
-10.9599995
-10.9599995
-10.9615295
-10.9584795
-10.9569495
-10.9584795
-10.9615295
-10.9615295
-10.9584795
-10.9599995
-10.9569495
-10.9584795
-10.9584795
-10.9599995
-10.9584795
-10.9569495
-10.9584795
-10.9584795
-10.9599995
-10.9599995
-10.9630595
-10.9615295
-10.9569495
-10.9599995
-10.9676295
-10.9645795
-10.9615295
-10.9615295
-10.9599995
-10.9615295
-10.9584795
-10.9554295
-10.9554295
-10.9599995
-10.9615295
-10.9645795
-10.9630595
-10.9630595
-10.9676295
-10.9630595
-10.9615295
-10.9599995
-10.9676295
-10.9706895
-10.9599995
-10.9615295
-10.9676295
-10.9645795
-10.9645795
-10.9615295
-10.9630595
-10.9645795
-10.9676295
-10.9706895
-10.9691595
-10.9691595
-10.9691595
-10.9630595
-10.9676295
-10.9645795
-10.9615295
-10.9599995
-10.9645795
-10.9645795
-10.9645795
-10.9645795
-10.9691595
-10.9645795
-10.9599995
-10.9676295
-10.9645795
-10.9615295
-10.9676295
-10.9676295
-10.9630595
-10.9676295
-10.9691595
-10.9645795
-10.9615295
-10.9630595
-10.9615295
-10.9645795
-10.9645795
-10.9737395
-10.9737395
-10.9752595
-10.9752595
-10.9752595
-10.9737395
-10.9752595
-10.9737395
-10.9691595
-10.9691595
-10.9645795
-10.9615295
-10.9599995
-10.9645795
-10.9599995
-10.9569495
-10.9554295
-10.9599995
-10.9645795
-10.9676295
-10.9645795
-10.9630595
-10.9676295
-10.9615295
-10.9691595
-10.9645795
-10.9645795
-10.9615295
-10.9630595
-10.9676295
-10.9645795
-10.9691595
-10.9630595
-10.9691595
-10.9676295
-10.9691595
-10.9706895
-10.9630595
-10.9630595
-10.9599995
-10.9599995
-10.9645795
-10.9599995
-10.9630595
-10.9676295
-10.9630595
-10.9676295
-10.9676295
-10.9630595
-10.9630595
-10.9676295
-10.9630595
-10.9676295
-10.9645795
-10.9676295
-10.9676295
-10.9706895
-10.9691595
-10.9691595
-10.9645795
-10.9691595
-10.9691595
-10.9691595
-10.9722095
-10.9691595
-10.9676295
-10.9645795
-10.9737395
-10.9722095
-10.9676295
-10.9737395
-10.9737395
-10.9706895
-10.9722095
-10.9767895
-10.9767895
-10.9737395
-10.9737395
-10.9767895
-10.9737395
-10.9767895
-10.9722095
-10.9737395
-10.9722095
-10.9722095
-10.9706895
-10.9691595
-10.9691595
-10.9676295
-10.9630595
-10.9676295
-10.9691595
-10.9630595
-10.9676295
-10.9722095
-10.9767895
-10.9706895
-10.9722095
-10.9722095
-10.9722095
-10.9722095
-10.9722095
-10.9722095
-10.9767895
-10.9767895
-10.9752595
-10.9859395
-10.9844195
-10.9783095
-10.9737395
-10.9752595
-10.9722095
-10.9722095
-10.9737395
-10.9722095
-10.9706895
-10.9645795
-10.9645795
-10.9630595
-10.9645795
-10.9645795
-10.9645795
-10.9645795
-10.9630595
-10.9645795
-10.9630595
-10.9630595
-10.9630595
-10.9615295
-10.9645795
-10.9691595
-10.9706895
-10.9691595
-10.9691595
-10.9722095
-10.9722095
-10.9691595
-10.9676295
-10.9645795
-10.9645795
-10.9615295
-10.9706895
-10.9645795
-10.9630595
-10.9691595
-10.9676295
-10.9691595
-10.9691595
-10.9645795
-10.9645795
-10.9691595
-10.9691595
-10.9691595
-10.9676295
-10.9676295
-10.9691595
-10.9722095
-10.9722095
-10.9691595
-10.9722095
-10.9722095
-10.9706895
-10.9767895
-10.9767895
-10.9722095
-10.9722095
-10.9676295
-10.9630595
-10.9645795
-10.9676295
-10.9676295
-10.9645795
-10.9691595
-10.9676295
-10.9706895
-10.9645795
-10.9630595
-10.9676295
-10.9676295
-10.9645795
-10.9645795
-10.9676295
-10.9645795
-10.9691595
-10.9676295
-10.9676295
-10.9645795
-10.9676295
-10.9691595
-10.9706895
-10.9615295
-10.9630595
-10.9645795
-10.9645795
-10.9630595
-10.9645795
-10.9691595
-10.9691595
-10.9706895
-10.9676295
-10.9722095
-10.9722095
-10.9798395
-10.9737395
-10.9737395
-10.9767895
-10.9722095
-10.9722095
-10.9676295
-10.9722095
-10.9722095
-10.9722095
-10.9706895
-10.9691595
-10.9676295
-10.9645795
-10.9645795
-10.9630595
-10.9676295
-10.9645795
-10.9630595
-10.9630595
-10.9691595
-10.9691595
-10.9706895
-10.9722095
-10.9706895
-10.9645795
-10.9676295
-10.9676295
-10.9676295
-10.9630595
-10.9691595
-10.9645795
-10.9599995
-10.9645795
-10.9645795
-10.9706895
-10.9645795
-10.9691595
-10.9722095
-10.9737395
-10.9752595
-10.9752595
-10.9737395
-10.9691595
-10.9691595
-10.9645795
-10.9691595
-10.9691595
-10.9676295
-10.9691595
-10.9722095
-10.9706895
-10.9676295
-10.9691595
-10.9645795
-10.9645795
-10.9645795
-10.9706895
-10.9706895
-10.9722095
-10.9691595
-10.9752595
-10.9706895
-10.9722095
-10.9645795
-10.9691595
-10.9645795
-10.9676295
-10.9691595
-10.9676295
-10.9676295
-10.9676295
-10.9706895
-10.9630595
-10.9676295
-10.9676295
-10.9630595
-10.9584795
-10.9599995
-10.9691595
-10.9691595
-10.9706895
-10.9691595
-10.9706895
-10.9706895
-10.9706895
-10.9691595
-10.9676295
-10.9676295
-10.9691595
-10.9691595
-10.9676295
-10.9691595
-10.9691595
-10.9737395
-10.9722095
-10.9722095
-10.9645795
-10.9676295
-10.9706895
-10.9737395
-10.9737395
-10.9722095
-10.9722095
-10.9706895
-10.9691595
-10.9676295
-10.9676295
-10.9676295
-10.9676295
-10.9630595
-10.9630595
-10.9584795
-10.9599995
-10.9676295
-10.9676295
-10.9645795
-10.9645795
-10.9706895
-10.9676295
-10.9737395
-10.9691595
-10.9737395
-10.9706895
-10.9722095
-10.9706895
-10.9722095
-10.9722095
-10.9706895
-10.9691595
-10.9722095
-10.9676295
-10.9645795
-10.9706895
-10.9691595
-10.9706895
-10.9676295
-10.9645795
-10.9691595
-10.9645795
-10.9676295
-10.9691595
-10.9691595
-10.9691595
-10.9722095
-10.9722095
-10.9691595
-10.9737395
-10.9767895
-10.9767895
-10.9783095
-10.9752595
-10.9737395
-10.9737395
-10.9737395
-10.9706895
-10.9722095
-10.9706895
-10.9645795
-10.9691595
-10.9676295
-10.9706895
-10.9691595
-10.9676295
-10.9691595
-10.9599995
-10.9615295
-10.9691595
-10.9722095
-10.9691595
-10.9722095
-10.9706895
-10.9752595
-10.9706895
-10.9737395
-10.9767895
-10.9722095
-10.9676295
-10.9676295
-10.9706895
-10.9691595
-10.9676295
-10.9706895
-10.9722095
-10.9722095
-10.9722095
-10.9752595
-10.9767895
-10.9722095
-10.9737395
-10.9706895
-10.9722095
-10.9706895
-10.9706895
-10.9691595
-10.9645795
-10.9706895
-10.9645795
-10.9676295
-10.9691595
-10.9676295
-10.9676295
-10.9691595
-10.9645795
-10.9706895
-10.9706895
-10.9706895
-10.9737395
-10.9722095
-10.9783095
-10.9752595
-10.9752595
-10.9752595
-10.9752595
-10.9737395
-10.9752595
-10.9722095
-10.9752595
-10.9752595
-10.9737395
-10.9752595
-10.9737395
-10.9783095
-10.9752595
-10.9737395
-10.9752595
-10.9752595
-10.9722095
-10.9691595
-10.9722095
-10.9737395
-10.9722095
-10.9676295
-10.9691595
-10.9706895
-10.9737395
-10.9752595
-10.9783095
-10.9767895
-10.9752595
-10.9737395
-10.9722095
-10.9722095
-10.9706895
-10.9752595
-10.9706895
-10.9752595
-10.9691595
-10.9722095
-10.9706895
-10.9752595
-10.9722095
-10.9706895
-10.9706895
-10.9706895
-10.9676295
-10.9676295
-10.9691595
-10.9645795
-10.9722095
-10.9737395
-10.9737395
-10.9676295
-10.9722095
-10.9722095
-10.9722095
-10.9722095
-10.9722095
-10.9737395
-10.9722095
-10.9767895
-10.9722095
-10.9706895
-10.9722095
-10.9691595
-10.9676295
-10.9676295
-10.9676295
-10.9691595
-10.9691595
-10.9737395
-10.9722095
-10.9737395
-10.9706895
-10.9706895
-10.9615295
-10.9706895
-10.9706895
-10.9722095
-10.9706895
-10.9737395
-10.9752595
-10.9737395
-10.9706895
-10.9752595
-10.9706895
-10.9706895
-10.9645795
-10.9722095
-10.9737395
-10.9737395
-10.9722095
-10.9722095
-10.9722095
-10.9691595
-10.9722095
-10.9676295
-10.9722095
-10.9737395
-10.9767895
-10.9737395
-10.9737395
-10.9752595
-10.9752595
-10.9752595
-10.9737395
-10.9752595
-10.9737395
-10.9752595
-10.9706895
-10.9767895
-10.9783095
-10.9798395
-10.9767895
-10.9752595
-10.9722095
-10.9752595
-10.9737395
-10.9783095
-10.9783095
-10.9767895
-10.9767895
-10.9752595
-10.9783095
-10.9798395
-10.9798395
-10.9783095
-10.9798395
-10.9767895
-10.9737395
-10.9737395
-10.9752595
-10.9737395
-10.9752595
-10.9767895
-10.9722095
-10.9722095
-10.9722095
-10.9722095
-10.9706895
-10.9752595
-10.9706895
-10.9722095
-10.9737395
-10.9737395
-10.9767895
-10.9767895
-10.9767895
-10.9737395
-10.9752595
-10.9752595
-10.9767895
-10.9783095
-10.9783095
-10.9737395
-10.9783095
-10.9767895
-10.9752595
-10.9783095
-10.9783095
-10.9783095
-10.9752595
-10.9798395
-10.9767895
-10.9783095
-10.9752595
-10.9722095
-10.9737395
-10.9752595
-10.9752595
-10.9737395
-10.9737395
-10.9737395
-10.9722095
-10.9722095
-10.9676295
-10.9645795
-10.9645795
-10.9645795
-10.9630595
-10.9630595
-10.9630595
-10.9645795
-10.9691595
-10.9706895
-10.9676295
-10.9722095
-10.9722095
-10.9767895
-10.9767895
-10.9767895
-10.9737395
-10.9722095
-10.9722095
-10.9737395
-10.9752595
-10.9722095
-10.9737395
-10.9722095
-10.9706895
-10.9722095
-10.9737395
-10.9706895
-10.9722095
-10.9706895
-10.9706895
-10.9722095
-10.9737395
-10.9737395
-10.9691595
-10.9706895
-10.9691595
-10.9752595
-10.9722095
-10.9737395
-10.9706895
-10.9722095
-10.9737395
-10.9722095
-10.9706895
-10.9706895
-10.9722095
-10.9691595
-10.9737395
-10.9722095
-10.9722095
-10.9752595
-10.9737395
-10.9706895
-10.9722095
-10.9691595
-10.9722095
-10.9752595
-10.9783095
-10.9767895
-10.9752595
-10.9737395
-10.9706895
-10.9752595
-10.9706895
-10.9767895
-10.9706895
-10.9737395
-10.9737395
-10.9737395
-10.9767895
-10.9783095
-10.9783095
-10.9752595
-10.9767895
-10.9767895
-10.9783095
-10.9767895
-10.9783095
-10.9752595
-10.9783095
-10.9737395
-10.9752595
-10.9752595
-10.9737395
-10.9767895
-10.9767895
-10.9783095
-10.9737395
-10.9722095
-10.9706895
-10.9722095
-10.9737395
-10.9752595
-10.9737395
-10.9752595
-10.9722095
-10.9752595
-10.9752595
-10.9737395
-10.9722095
-10.9706895
-10.9737395
-10.9752595
-10.9737395
-10.9752595
-10.9752595
-10.9737395
-10.9737395
-10.9783095
-10.9752595
-10.9813695
-10.9798395
-10.9798395
-10.9859395
-10.9828895
-10.9828895
-10.9844195
-10.9844195
-10.9889995
-10.9889995
-10.9859395
-10.9859395
-10.9828895
-10.9828895
-10.9828895
-10.9874695
-10.9844195
-10.9813695
-10.9813695
-10.9813695
-10.9813695
-10.9813695
-10.9798395
-10.9737395
-10.9722095
-10.9722095
-10.9706895
-10.9691595
-10.9706895
-10.9676295
-10.9706895
-10.9752595
-10.9767895
-10.9706895
-10.9706895
-10.9706895
-10.9691595
-10.9767895
-10.9737395
-10.9737395
-10.9676295
-10.9645795
-10.9706895
-10.9722095
-10.9752595
-10.9752595
-10.9737395
-10.9752595
-10.9767895
-10.9722095
-10.9737395
-10.9722095
-10.9767895
-10.9737395
-10.9737395
-10.9722095
-10.9752595
-10.9706895
-10.9722095
-10.9752595
-10.9752595
-10.9752595
-10.9752595
-10.9752595
-10.9752595
-10.9752595
-10.9737395
-10.9737395
-10.9752595
-10.9752595
-10.9752595
-10.9737395
-10.9752595
-10.9737395
-10.9752595
-10.9767895
-10.9767895
-10.9722095
-10.9752595
-10.9752595
-10.9722095
-10.9737395
-10.9737395
-10.9737395
-10.9737395
-10.9783095
-10.9752595
-10.9767895
-10.9722095
-10.9722095
-10.9722095
-10.9767895
-10.9752595
-10.9752595
-10.9737395
-10.9737395
-10.9752595
-10.9722095
-10.9722095
-10.9722095
-10.9737395
-10.9752595
-10.9783095
-10.9828895
-10.9783095
-10.9767895
-10.9767895
-10.9767895
-10.9798395
-10.9737395
-10.9706895
-10.9752595
-10.9752595
-10.9767895
-10.9737395
-10.9752595
-10.9737395
-10.9752595
-10.9767895
-10.9783095
-10.9798395
-10.9783095
-10.9767895
-10.9752595
-10.9722095
-10.9752595
-10.9767895
-10.9752595
-10.9767895
-10.9767895
-10.9767895
-10.9783095
-10.9798395
-10.9798395
-10.9767895
-10.9828895
-10.9752595
-10.9737395
-10.9706895
-10.9722095
-10.9722095
-10.9767895
-10.9767895
-10.9752595
-10.9737395
-10.9752595
-10.9767895
-10.9752595
-10.9783095
-10.9752595
-10.9783095
-10.9752595
-10.9767895
-10.9767895
-10.9783095
-10.9752595
-10.9752595
-10.9783095
-10.9767895
-10.9767895
-10.9783095
-10.9828895
-10.9813695
-10.9813695
