1.88904	
1.88141	
1.86462	
1.828	
1.82495	
1.83105	
1.83563	
1.82648	
1.83716	
1.88293	
1.95313	
2.01569	
2.04773	
2.04468	
2.02637	
1.98517	
1.94855	
1.90735	
1.87531	
1.84479	
1.81732	
1.81122	
1.80054	
1.81732	
1.81885	
1.81885	
1.8219	
1.84479	
1.86768	
1.88446	
1.88293	
1.88599	
1.88904	
1.92261	
1.97449	
1.97449	
1.96838	
1.94397	
1.92413	
1.88904	
1.85547	
1.82495	
1.80817	
1.79901	
1.80511	
1.82343	
1.8219	
1.85547	
1.88141	
1.92261	
1.92566	
1.92261	
1.91193	
1.89667	
1.88446	
1.86768	
1.86615	
1.85242	
1.84021	
1.82953	
1.84784	
1.86768	
1.87683	
1.87378	
1.89209	
1.90125	
1.93024	
1.95923	
1.99585	
2.03857	
2.04926	
2.04315	
2.01721	
1.96838	
1.90582	
1.8692	
1.83105	
1.79291	
1.76849	
1.76544	
1.79291	
1.79901	
1.80359	
1.82648	
1.84326	
1.83716	
1.83716	
1.83411	
1.85699	
1.85699	
1.86005	
1.85699	
1.87836	
1.88751	
1.89667	
1.91345	
1.88904	
1.87225	
1.86462	
1.86005	
1.85852	
1.8631	
1.84784	
1.84479	
1.85089	
1.85394	
1.86005	
1.85394	
1.87378	
1.86462	
1.87378	
1.87683	
1.87683	
1.86462	
1.87683	
1.85852	
1.86005	
1.86462	
1.86157	
1.86615	
1.8631	
1.87531	
1.87683	
1.88599	
1.90125	
1.9043	
1.89514	
1.89514	
1.90582	
1.89514	
1.88446	
1.86462	
1.88446	
1.89056	
1.88751	
1.86157	
1.87988	
1.89362	
1.8692	
1.86615	
1.90582	
1.90735	
1.89667	
1.89819	
1.90125	
1.90582	
1.92566	
2.01111	
2.03094	
2.00806	
1.98364	
1.96686	
1.94397	
1.91345	
1.87531	
1.84479	
1.81274	
1.76086	
1.75781	
1.75781	
1.77917	
1.80511	
1.828	
1.82343	
1.82648	
1.81122	
1.81885	
1.8219	
1.85242	
1.86615	
1.87683	
1.87683	
1.87683	
1.87225	
1.85547	
1.86005	
1.86157	
1.85852	
1.84784	
1.84326	
1.85242	
1.85852	
1.86768	
1.89209	
1.89972	
1.89209	
1.88446	
1.89209	
1.90582	
1.89209	
1.88599	
1.86462	
1.85394	
1.84326	
1.85089	
1.88599	
1.91193	
1.93634	
1.92871	
1.92108	
1.9104	
1.89209	
1.86157	
1.84479	
1.82343	
1.80206	
1.81732	
1.90125	
1.95007	
1.98212	
1.9928	
1.98212	
1.96075	
1.91803	
1.87988	
1.82648	
1.78986	
1.73645	
1.70746	
1.69373	
1.71967	
1.78223	
1.82495	
1.85089	
1.85242	
1.85547	
1.85242	
1.84479	
1.85242	
1.85852	
1.84479	
1.83563	
1.82953	
1.828	
1.83411	
1.83563	
1.83563	
1.85394	
1.8631	
1.86768	
1.87378	
1.86005	
1.87225	
1.87988	
1.90887	
1.92108	
1.91498	
1.9104	
1.91803	
1.9165	
1.89667	
1.88141	
1.85242	
1.83716	
1.81885	
1.81274	
1.81427	
1.81885	
1.81122	
1.78833	
1.80511	
1.81885	
1.86157	
1.87683	
1.88293	
1.88293	
1.88446	
1.90735	
1.91803	
1.91803	
1.89667	
1.88293	
1.84937	
1.83258	
1.81732	
1.82037	
1.81427	
1.82037	
1.81427	
1.81122	
1.81732	
1.81732	
1.8158	
1.84174	
1.87378	
1.87531	
1.88599	
1.89514	
1.89972	
1.92413	
1.95313	
1.94702	
1.92413	
1.88446	
1.8692	
1.85242	
1.83716	
1.81122	
1.81427	
1.83258	
1.82953	
1.81732	
1.82648	
1.828	
1.82037	
1.82037	
1.8219	
1.80817	
1.81122	
1.8219	
1.85089	
1.85089	
1.86005	
1.84937	
1.84784	
1.83563	
1.84326	
1.84174	
1.83563	
1.83411	
1.83411	
1.84479	
1.84326	
1.84326	
1.84174	
1.84784	
1.85394	
1.87836	
1.89056	
1.90887	
1.9104	
1.90735	
1.89056	
1.89056	
1.88751	
1.86768	
1.85242	
1.83258	
1.83411	
1.81885	
1.80054	
1.79443	
1.80359	
1.81122	
1.83105	
1.84021	
1.83716	
1.83411	
1.83258	
1.84784	
1.86005	
1.87225	
1.86462	
1.86157	
1.86157	
1.86462	
1.86462	
1.87225	
1.90125	
1.90582	
1.89056	
1.87531	
1.85547	
1.83105	
1.82037	
1.80359	
1.80817	
1.82953	
1.81885	
1.80206	
1.80054	
1.8219	
1.828	
1.84479	
1.83258	
1.82495	
1.8219	
1.85242	
1.87988	
1.92413	
1.96075	
1.96991	
1.96686	
1.95313	
1.93176	
1.89056	
1.84937	
1.80206	
1.7807	
1.74255	
1.72729	
1.75476	
1.80054	
1.82648	
1.85089	
1.84784	
1.83258	
1.82953	
1.828	
1.84021	
1.83716	
1.86462	
1.86768	
1.87683	
1.89362	
1.89667	
1.91345	
1.93329	
1.92261	
1.90125	
1.88141	
1.86615	
1.84631	
1.8219	
1.80969	
1.77917	
1.80054	
1.79596	
1.80054	
1.80206	
1.80511	
1.82343	
1.82648	
1.83105	
1.828	
1.83411	
1.83105	
1.84937	
1.85242	
1.85547	
1.85852	
1.89056	
1.89362	
1.89362	
1.92108	
1.91498	
1.93024	
1.91803	
1.90887	
1.90735	
1.9104	
1.88293	
1.86615	
1.85394	
1.84631	
1.81732	
1.82343	
1.82648	
1.828	
1.85089	
1.85394	
1.84784	
1.83563	
1.81427	
1.8158	
1.84479	
1.8219	
1.80511	
1.82495	
1.8158	
1.82495	
1.83411	
1.8631	
1.87683	
1.87988	
1.88904	
1.95618	
1.97449	
1.96228	
1.93176	
1.89514	
1.86005	
1.80511	
1.76544	
1.74103	
1.74561	
1.73492	
1.7395	
1.76086	
1.7807	
1.79138	
1.82037	
1.81427	
1.81122	
1.82343	
1.82037	
1.82037	
1.8219	
1.83258	
1.82953	
1.83411	
1.828	
1.84326	
1.84784	
1.85242	
1.85242	
1.84479	
1.84937	
1.84326	
1.85089	
1.85089	
1.85089	
1.85242	
1.85394	
1.85242	
1.85394	
1.84021	
1.85242	
1.85394	
1.83563	
1.83411	
1.828	
1.828	
1.82037	
1.82495	
1.86157	
1.92413	
1.95465	
1.99432	
2.005	
1.97906	
1.95618	
1.91956	
1.86768	
1.82343	
1.77765	
1.74103	
1.72577	
1.72272	
1.77155	
1.78223	
1.80817	
1.8219	
1.82037	
1.81274	
1.828	
1.85394	
1.86157	
1.86768	
1.85852	
1.85394	
1.83411	
1.84326	
1.83563	
1.84174	
1.84021	
1.82037	
1.81122	
1.81427	
1.8219	
1.83563	
1.87378	
1.89209	
1.9165	
1.91193	
1.90887	
1.88293	
1.87225	
1.84479	
1.82037	
1.81885	
1.81427	
1.80969	
1.80206	
1.81732	
1.83563	
1.92871	
1.96075	
1.95923	
1.92566	
1.89514	
1.88141	
1.85852	
1.83563	
1.80511	
1.7868	
1.76392	
1.75323	
1.76086	
1.77917	
1.78223	
1.79443	
1.78833	
1.80359	
1.82648	
1.82648	
1.83563	
1.82037	
1.82343	
1.82343	
1.83411	
1.83411	
1.88446	
1.90582	
1.90582	
1.89514	
1.87378	
1.91193	
1.92566	
1.95618	
1.94397	
1.9104	
1.87683	
1.85394	
1.82953	
1.82953	
1.83105	
1.82037	
1.78528	
1.75323	
1.76544	
1.76544	
1.77765	
1.77917	
1.80359	
1.79138	
1.78833	
1.79138	
1.81732	
1.8219	
1.82495	
1.82648	
1.83105	
1.84174	
1.83411	
1.83411	
1.83258	
1.84174	
1.85394	
1.86005	
1.85699	
1.86157	
1.85242	
1.85089	
1.84174	
1.82953	
1.87378	
1.90125	
1.93329	
1.92719	
1.91956	
1.89362	
1.87531	
1.84631	
1.828	
1.8158	
1.78986	
1.76697	
1.76697	
1.79138	
1.81122	
1.80206	
1.80054	
1.80817	
1.80969	
1.81732	
1.81427	
1.828	
1.82648	
1.81885	
1.82953	
1.83105	
1.83563	
1.83105	
1.84326	
1.84479	
1.85852	
1.85699	
1.85852	
1.85242	
1.84631	
1.84479	
1.83563	
1.82953	
1.81885	
1.81122	
1.79901	
1.81122	
1.80969	
1.8219	
1.82343	
1.84479	
1.84631	
1.84937	
1.84937	
1.84479	
1.83563	
1.82648	
1.82495	
1.8219	
1.828	
1.8219	
1.82037	
1.81732	
1.82648	
1.83716	
1.83563	
1.85089	
1.86768	
1.89819	
1.93329	
1.93024	
1.9455	
1.93024	
1.9043	
1.87225	
1.84021	
1.828	
1.79596	
1.77002	
1.77307	
1.77002	
1.77155	
1.76239	
1.7746	
1.76849	
1.79443	
1.80359	
1.81274	
1.81427	
1.81122	
1.8158	
1.8158	
1.81885	
1.8158	
1.81885	
1.84631	
1.87225	
1.87988	
1.8692	
1.88751	
1.88904	
1.8692	
1.8631	
1.84937	
1.82037	
1.84021	
1.82648	
1.85547	
1.86462	
1.8631	
1.83716	
1.84326	
1.8219	
1.79901	
1.78833	
1.77917	
1.77917	
1.77155	
1.76392	
1.7807	
1.79443	
1.80817	
1.81274	
1.80359	
1.80817	
1.80206	
1.81122	
1.80359	
1.8219	
1.82495	
1.82343	
1.84631	
1.83716	
1.84784	
1.83716	
1.84937	
1.84174	
1.83105	
1.828	
1.83411	
1.85089	
1.84937	
1.85242	
1.84631	
1.86157	
1.85394	
1.84174	
1.82648	
1.8158	
1.79291	
1.7868	
1.7746	
1.78986	
1.78986	
1.83563	
1.85394	
1.88293	
1.91193	
1.89972	
1.88141	
1.85242	
1.82648	
1.79749	
1.7868	
1.77155	
1.77155	
1.77765	
1.77002	
1.78833	
1.81122	
1.84021	
1.84021	
1.83716	
1.84021	
1.86615	
1.85394	
1.84784	
1.83105	
1.81885	
1.80054	
1.80054	
1.80054	
1.79291	
1.79596	
1.79291	
1.79749	
1.80206	
1.82343	
1.81885	
1.81427	
1.81885	
1.82343	
1.81885	
1.81274	
1.83258	
1.83411	
1.82648	
1.82953	
1.8219	
1.83105	
1.84784	
1.85242	
1.8692	
1.87531	
1.86157	
1.84021	
1.81732	
1.8158	
1.80054	
1.81122	
1.80054	
1.80511	
1.80054	
1.80511	
1.81122	
1.82343	
1.84021	
1.83716	
1.84174	
1.87378	
1.89056	
1.87988	
1.8692	
1.87531	
1.87683	
1.85394	
1.84479	
1.828	
1.81885	
1.81274	
1.81732	
1.83105	
1.84021	
1.85089	
1.84021	
1.8631	
1.8631	
1.86462	
1.84479	
1.83563	
1.83105	
1.81732	
1.79901	
1.79443	
1.79443	
1.79596	
1.80817	
1.81732	
1.82037	
1.81122	
1.8158	
1.80969	
1.82343	
1.81732	
1.8219	
1.83411	
1.84021	
1.84479	
1.84631	
1.84631	
1.83105	
1.83105	
1.82648	
1.83105	
1.83105	
1.828	
1.8219	
1.83105	
1.83716	
1.84784	
1.85699	
1.84784	
1.87988	
1.8692	
1.86462	
1.84021	
1.828	
1.81122	
1.80817	
1.80511	
1.81427	
1.8158	
1.80206	
1.80359	
1.81427	
1.83105	
1.83563	
1.84631	
1.84174	
1.84174	
1.83716	
1.83716	
1.83411	
1.828	
1.82495	
1.81885	
1.82495	
1.8219	
1.83105	
1.83716	
1.84174	
1.83105	
1.83258	
1.83258	
1.83105	
1.828	
1.82343	
1.8219	
1.82343	
1.84021	
1.83716	
1.85089	
1.88751	
1.90125	
1.97144	
1.99127	
1.97601	
1.9516	
1.92413	
1.90582	
1.87531	
1.828	
1.77002	
1.72729	
1.71509	
1.69373	
1.70135	
1.71509	
1.73492	
1.76392	
1.78528	
1.80054	
1.79443	
1.80054	
1.79443	
1.79291	
1.79749	
1.80206	
1.79596	
1.80054	
1.79596	
1.79901	
1.79901	
1.79291	
1.79749	
1.80511	
1.8219	
1.82648	
1.81885	
1.80969	
1.81274	
1.80054	
1.80054	
1.79443	
1.79443	
1.78986	
1.78833	
1.79291	
1.79443	
1.80359	
1.80511	
1.82037	
1.82495	
1.82343	
1.8219	
1.82953	
1.81732	
1.82037	
1.82495	
1.82953	
1.85852	
1.85547	
1.85394	
1.86157	
1.86157	
1.86768	
1.86462	
1.89056	
1.88904	
1.87531	
1.84937	
1.82495	
1.79749	
1.77917	
1.75934	
1.77155	
1.7868	
1.77155	
1.77307	
1.7807	
1.81274	
1.82953	
1.84174	
1.84326	
1.83411	
1.81885	
1.80969	
1.79443	
1.7868	
1.76849	
1.76697	
1.76697	
1.77155	
1.7746	
1.77307	
1.78528	
1.80054	
1.80511	
1.84937	
1.89209	
1.89209	
1.90582	
1.89056	
1.87836	
1.84479	
1.82037	
1.79901	
1.77765	
1.75629	
1.7395	
1.74561	
1.74561	
1.75629	
1.76697	
1.79596	
1.80817	
1.80206	
1.79443	
1.80206	
1.80054	
1.81122	
1.82648	
1.83716	
1.84021	
1.83258	
1.83105	
1.8219	
1.81885	
1.81122	
1.80359	
1.79596	
1.79596	
1.81885	
1.87378	
1.87988	
1.8631	
1.87988	
1.87836	
1.85699	
1.83411	
1.81885	
1.79443	
1.79291	
1.77765	
1.75934	
1.75323	
1.75018	
1.76086	
1.7807	
1.80969	
1.84326	
1.90125	
1.93939	
1.93634	
1.91956	
1.89209	
1.85394	
1.81885	
1.78223	
1.75629	
1.74866	
1.73187	
1.71967	
1.7334	
1.76392	
1.77307	
1.78375	
1.80054	
1.82037	
1.81427	
1.83563	
1.83716	
1.86615	
1.87531	
1.86005	
1.84021	
1.87378	
1.93176	
1.93176	
1.91193	
1.8692	
1.83563	
1.80054	
1.77765	
1.76849	
1.75323	
1.75476	
1.7395	
1.72119	
1.73798	
1.75781	
1.75781	
1.79596	
1.8158	
1.81274	
1.80054	
1.80206	
1.80054	
1.79291	
1.80054	
1.79596	
1.81427	
1.85089	
1.91498	
1.9165	
1.91193	
1.91498	
1.89819	
1.85699	
1.84021	
1.828	
1.81274	
1.79901	
1.78375	
1.77155	
1.77002	
1.77155	
1.78375	
1.83716	
1.86615	
1.8692	
1.85699	
1.83258	
1.83563	
1.86157	
1.90125	
1.88751	
1.87378	
1.87378	
1.85699	
1.82495	
1.828	
1.80359	
1.7746	
1.75323	
1.72424	
1.71661	
1.71051	
1.72272	
1.72729	
1.76544	
1.7807	
1.7746	
1.80206	
1.82343	
1.82648	
1.82495	
1.84174	
1.85394	
1.85547	
1.84784	
1.84479	
1.83716	
1.83716	
1.87836	
1.89056	
1.87225	
1.85852	
1.82343	
1.80969	
1.78833	
1.77002	
1.75476	
1.73798	
1.74713	
1.74103	
1.76849	
1.78833	
1.80817	
1.828	
1.84631	
1.84479	
1.82343	
1.82037	
1.82037	
1.82343	
1.82037	
1.81732	
1.83563	
1.85547	
1.86462	
1.88599	
1.87836	
1.87836	
1.85394	
1.82953	
1.81885	
1.80054	
1.78375	
1.76697	
1.76697	
1.76544	
1.78528	
1.79596	
1.81732	
1.87836	
1.88751	
1.89514	
1.89514	
1.89056	
1.8631	
1.83716	
1.81274	
1.8219	
1.80511	
1.7807	
1.76544	
1.7807	
1.7868	
1.79291	
1.80969	
1.80359	
1.80511	
1.79596	
1.81122	
1.80817	
1.81732	
1.82495	
1.83563	
1.85547	
1.90582	
1.91803	
1.90125	
1.88141	
1.87225	
1.87836	
1.86768	
1.84326	
1.82343	
1.82953	
1.81885	
1.80511	
1.78986	
1.79901	
1.79291	
1.79138	
1.79291	
1.78528	
1.7807	
1.77307	
1.7868	
1.79749	
1.8158	
1.80511	
1.80969	
1.79901	
1.79901	
1.82648	
1.86005	
1.88599	
1.88446	
1.88141	
1.85394	
1.86615	
1.86005	
1.84326	
1.81732	
1.80206	
1.77917	
1.78375	
1.79443	
1.80054	
1.8219	
1.81732	
1.81885	
1.81732	
1.81732	
1.80969	
1.81274	
1.81274	
1.80969	
1.81885	
1.81885	
1.83411	
1.86615	
1.89362	
1.88293	
1.87225	
1.84631	
1.86157	
1.84631	
1.83563	
1.80206	
1.7868	
1.77917	
1.78833	
1.79749	
1.80206	
1.81427	
1.80817	
1.81885	
1.81274	
1.8158	
1.82037	
1.83105	
1.828	
1.8158	
1.81274	
1.81427	
1.81427	
1.80969	
1.83716	
1.84021	
1.84174	
1.84326	
1.84784	
1.84174	
1.83716	
1.86005	
1.89819	
1.90735	
1.90735	
1.88751	
1.85852	
1.8631	
1.84479	
1.82495	
1.81274	
1.80054	
1.77155	
1.80511	
1.80511	
1.81427	
1.82037	
1.82037	
1.82495	
1.81274	
1.79749	
1.7868	
1.78833	
1.77307	
1.77155	
1.77155	
1.78528	
1.79291	
1.83258	
1.87531	
1.88141	
1.87988	
1.89972	
1.89362	
1.86768	
1.86005	
1.84021	
1.86005	
1.84021	
1.83105	
1.84174	
1.84937	
1.84326	
1.82343	
1.82648	
1.8219	
1.82648	
1.83563	
1.83258	
1.83411	
1.82495	
1.80817	
1.80969	
1.80206	
1.80817	
1.81732	
1.80817	
1.79596	
1.77917	
1.78986	
1.79443	
1.8158	
1.8219	
1.84631	
1.85699	
1.84784	
1.83411	
1.83258	
1.83258	
1.83411	
1.85394	
1.85852	
1.86462	
1.85699	
1.85547	
1.83411	
1.83105	
1.85089	
1.88599	
1.88141	
1.87531	
1.8631	
1.83716	
1.82953	
1.81122	
1.78986	
1.7868	
1.79138	
1.77765	
1.77307	
1.7868	
1.80359	
1.81885	
1.83716	
1.83105	
1.81122	
1.81274	
1.82037	
1.83411	
1.82648	
1.84326	
1.83716	
1.85394	
1.88904	
1.93787	
1.93176	
1.93787	
1.92719	
1.89819	
1.8692	
1.84631	
1.8219	
1.79901	
1.76544	
1.73645	
1.73798	
1.76239	
1.76697	
1.77307	
1.78528	
1.7746	
1.76239	
1.76239	
1.76697	
1.78223	
1.77765	
1.78223	
1.78375	
1.79749	
1.80817	
1.81427	
1.86157	
1.88599	
1.89819	
1.88599	
1.89362	
1.89056	
1.90125	
1.90582	
1.91803	
1.9104	
1.9043	
1.88904	
1.87988	
1.86462	
1.83258	
1.82037	
1.78375	
1.73645	
1.6983	
1.68304	
1.65558	
1.70898	
1.73187	
1.75476	
1.76392	
1.75934	
1.75323	
1.79596	
1.83105	
1.8219	
1.81885	
1.79749	
1.79596	
1.85852	
1.88599	
1.89819	
1.90125	
1.98364	
2.02179	
1.98669	
1.92413	
1.87531	
1.82953	
1.75934	
1.6922	
1.67542	
1.6449	
1.61438	
1.62506	
1.651	
1.69373	
1.7395	
1.77002	
1.77917	
1.79596	
1.80359	
1.80511	
1.78986	
1.81122	
1.82343	
1.84937	
1.84784	
1.84479	
1.83105	
1.82037	
1.81427	
1.80511	
1.79596	
1.7807	
1.76849	
1.75934	
1.76239	
1.75934	
1.75781	
1.76849	
1.77002	
1.78528	
1.79138	
1.80206	
1.79596	
1.79596	
1.80206	
1.80817	
1.80817	
1.82648	
1.83563	
1.84021	
1.84174	
1.83563	
1.82495	
1.80054	
1.78528	
1.77307	
1.76697	
1.75781	
1.75934	
1.76392	
1.78223	
1.79291	
1.82037	
1.82953	
1.8631	
1.89819	
1.91498	
1.9165	
1.9104	
1.88751	
1.85242	
1.83258	
1.78986	
1.75171	
1.72729	
1.6983	
1.74866	
1.7807	
1.80511	
1.81122	
1.80511	
1.79291	
1.79138	
1.7807	
1.7807	
1.76392	
1.76544	
1.74866	
1.73492	
1.74561	
1.75018	
1.76392	
1.78528	
1.81427	
1.82037	
1.85242	
1.84937	
1.84326	
1.82953	
1.83258	
1.8219	
1.81885	
1.80817	
1.79291	
1.78528	
1.76849	
1.78375	
1.78833	
1.80206	
1.81274	
1.82343	
1.82648	
1.82953	
1.83105	
1.80511	
1.80054	
1.79138	
1.79138	
1.78528	
1.77765	
1.77765	
1.78375	
1.7807	
1.80054	
1.8158	
1.83258	
1.828	
1.80206	
1.80969	
1.80511	
1.80359	
1.83258	
1.88293	
1.92566	
1.95007	
1.97601	
1.96991	
1.92413	
1.89056	
1.85852	
1.79291	
1.75629	
1.73492	
1.72882	
1.72119	
1.7334	
1.72272	
1.75323	
1.75934	
1.76849	
1.77155	
1.77002	
1.77307	
1.76392	
1.76697	
1.77002	
1.78375	
1.80054	
1.81122	
1.80511	
1.80359	
1.80359	
1.80969	
1.81732	
1.80817	
1.8219	
1.828	
1.85394	
1.88293	
1.87836	
1.86768	
1.8631	
1.85699	
1.83716	
1.81885	
1.80969	
1.79596	
1.77002	
1.76849	
1.76392	
1.77155	
1.76392	
1.78375	
1.81427	
1.84631	
1.85089	
1.85394	
1.84021	
1.82648	
1.81122	
1.78833	
1.78986	
1.78986	
1.79138	
1.78986	
1.81427	
1.84784	
1.83563	
1.828	
1.82343	
1.81274	
1.80054	
1.80969	
1.80054	
1.80969	
1.79443	
1.79901	
1.79291	
1.80054	
1.80206	
1.8158	
1.80969	
1.79443	
1.80511	
1.78833	
1.78833	
1.7868	
1.78528	
1.78986	
1.8158	
1.81427	
1.81122	
1.82495	
1.82495	
1.80511	
1.80054	
1.80054	
1.79291	
1.80359	
1.79901	
1.80817	
1.81427	
1.81732	
1.80817	
1.81732	
1.82953	
1.8158	
1.81122	
1.80817	
1.80817	
1.79443	
1.79291	
1.78528	
1.7746	
1.76392	
1.77155	
1.76544	
1.7746	
1.78375	
1.79901	
1.78528	
1.79596	
1.81885	
1.83105	
1.88446	
1.88446	
1.89209	
1.8692	
1.84784	
1.82343	
1.80359	
1.80054	
1.79138	
1.78375	
1.76697	
1.75934	
1.76544	
1.77155	
1.79138	
1.79596	
1.78833	
1.77917	
1.76544	
1.77002	
1.7746	
1.79596	
1.8219	
1.85394	
1.9165	
1.92719	
1.90125	
1.86462	
1.84326	
1.80359	
1.78528	
1.7746	
1.75934	
1.73645	
1.73035	
1.73645	
1.74255	
1.75629	
1.77002	
1.76392	
1.76392	
1.77917	
1.79596	
1.81122	
1.80969	
1.8219	
1.80969	
1.80817	
1.8158	
1.79749	
1.78986	
1.78986	
1.80359	
1.79749	
1.79291	
1.79291	
1.79596	
1.79596	
1.79443	
1.79901	
1.79138	
1.78986	
1.77917	
1.78528	
1.80511	
1.80817	
1.79596	
1.81885	
1.82343	
1.82495	
1.81122	
1.80359	
1.79901	
1.79901	
1.80969	
1.84784	
1.8692	
1.87531	
1.86005	
1.84631	
1.86462	
1.85699	
1.83563	
1.80511	
1.80817	
1.83105	
1.84021	
1.85852	
1.85699	
1.85852	
1.85089	
1.82953	
1.80511	
1.77307	
1.7334	
1.71356	
1.71814	
1.6983	
1.70135	
1.71356	
1.73492	
1.73187	
1.75018	
1.75781	
1.78528	
1.7868	
1.79596	
1.78375	
1.80206	
1.82495	
1.81885	
1.8158	
1.80511	
1.79596	
1.80969	
1.8219	
1.82037	
1.81274	
1.80054	
1.79596	
1.83563	
1.84937	
1.83411	
1.8158	
1.81122	
1.79749	
1.79596	
1.7807	
1.7746	
1.76086	
1.76392	
1.77765	
1.79596	
1.79901	
1.80206	
1.82495	
1.83105	
1.83105	
1.81427	
1.80054	
1.77917	
1.77155	
1.80969	
1.84937	
1.84631	
1.86462	
1.85089	
1.83716	
1.81427	
1.79138	
1.76697	
1.75018	
1.75323	
1.75323	
1.77307	
1.79443	
1.82037	
1.84174	
1.85699	
1.84174	
1.81274	
1.7868	
1.76697	
1.75781	
1.75323	
1.75323	
1.76086	
1.78528	
1.78223	
1.79596	
1.79443	
1.81122	
1.81274	
1.81732	
1.8158	
1.81885	
1.82648	
1.82953	
1.83716	
1.84479	
1.84326	
1.83716	
1.83258	
1.80969	
1.78528	
1.78375	
1.78375	
1.78833	
1.79138	
1.79596	
1.79901	
1.81274	
1.81274	
1.81427	
1.81122	
1.81274	
1.78833	
1.78986	
1.77917	
1.79901	
1.83258	
1.83411	
1.83563	
1.83105	
1.84631	
1.82648	
1.80359	
1.77307	
1.75781	
1.76086	
1.75171	
1.75171	
1.77307	
1.78833	
1.83105	
1.83563	
1.83411	
1.82343	
1.80969	
1.80359	
1.78833	
1.77917	
1.76544	
1.76392	
1.75781	
1.75934	
1.76849	
1.78223	
1.7746	
1.78375	
1.85242	
1.86005	
1.87988	
1.90125	
1.90582	
1.89362	
1.86157	
1.82953	
1.80206	
1.77155	
1.72577	
1.71051	
1.71051	
1.6983	
1.6983	
1.72882	
1.74103	
1.77765	
1.78223	
1.78375	
1.78223	
1.78223	
1.78833	
1.7868	
1.79749	
1.79138	
1.80817	
1.81427	
1.82037	
1.85699	
1.86615	
1.8631	
1.85547	
1.84784	
1.82648	
1.85699	
1.87531	
1.86157	
1.83716	
1.80511	
1.77917	
1.77002	
1.75171	
1.75018	
1.76697	
1.75781	
1.75781	
1.75629	
1.77917	
1.77765	
1.77002	
1.77002	
1.78986	
1.78223	
1.76849	
1.78223	
1.78833	
1.79138	
1.78986	
1.79291	
1.77917	
1.78375	
1.7868	
1.78223	
1.77765	
1.79291	
1.79901	
1.80817	
1.80511	
1.80206	
1.79901	
1.80511	
1.81274	
1.80817	
1.80511	
1.80054	
1.81885	
1.81122	
1.81427	
1.81274	
1.82495	
1.82037	
1.82343	
1.83563	
1.8631	
1.84784	
1.83105	
1.82953	
1.80817	
1.80359	
1.84174	
1.85852	
1.85547	
1.83411	
1.79901	
1.7807	
1.76392	
1.7334	
1.71967	
1.71661	
1.70593	
1.71051	
1.73798	
1.74103	
1.75934	
1.78528	
1.78833	
1.78833	
1.79749	
1.79596	
1.78986	
1.79901	
1.80511	
1.80817	
1.80206	
1.8219	
1.8219	
1.82495	
1.82648	
1.82037	
1.8219	
1.82037	
1.82037	
1.80969	
1.82037	
1.80969	
1.80206	
1.78986	
1.78223	
1.7807	
1.7807	
1.7868	
1.7868	
1.79901	
1.79138	
1.7868	
1.76849	
1.76392	
1.76697	
1.77917	
1.77765	
1.76849	
1.76697	
1.77917	
1.7868	
1.81122	
1.81885	
1.8219	
1.84631	
1.84326	
1.83563	
1.84174	
1.828	
1.81732	
1.80511	
1.81122	
1.8219	
1.828	
1.82343	
1.79596	
1.79138	
1.79749	
1.80054	
1.79138	
1.77917	
1.78833	
1.76239	
1.75934	
1.75018	
1.74561	
1.74713	
1.74255	
1.76697	
1.7868	
1.79596	
1.79443	
1.79138	
1.79138	
1.79901	
1.79138	
1.7868	
1.78986	
1.79443	
1.7868	
1.79291	
1.80817	
1.80511	
1.80054	
1.80054	
1.80817	
1.80817	
1.81122	
1.79596	
1.79749	
1.79596	
1.79291	
1.82037	
1.82495	
1.8219	
1.79901	
1.79749	
1.80359	
1.79596	
1.81122	
1.8219	
1.82953	
1.84174	
1.85089	
1.84479	
1.828	
1.80359	
1.79291	
1.76849	
1.73645	
1.71509	
1.7334	
1.75018	
1.79596	
1.82495	
1.86157	
1.87531	
1.88599	
1.88293	
1.8631	
1.83563	
1.79901	
1.7807	
1.74103	
1.71661	
1.70441	
1.70441	
1.71509	
1.71814	
1.74713	
1.76697	
1.78833	
1.79901	
1.81885	
1.82343	
1.84784	
1.86005	
1.8692	
1.85394	
1.83716	
1.8158	
1.79443	
1.7746	
1.75476	
1.74103	
1.75171	
1.76392	
1.76086	
1.77917	
1.77765	
1.78375	
1.79138	
1.79901	
1.79749	
1.80206	
1.80206	
1.78833	
1.79901	
1.80206	
1.79901	
1.79443	
1.79291	
1.78528	
1.79749	
1.79901	
1.80206	
1.79901	
1.80054	
1.80969	
1.82343	
1.87988	
1.87531	
1.88141	
1.89056	
1.88293	
1.84937	
1.82037	
1.78375	
1.75934	
1.74713	
1.75476	
1.76239	
1.75629	
1.75018	
1.75323	
1.79138	
1.81885	
1.8158	
1.79596	
1.79291	
1.78375	
1.79291	
1.81274	
1.81732	
1.81427	
1.79443	
1.7868	
1.7746	
1.77155	
1.75781	
1.75629	
1.75171	
1.74713	
1.7334	
1.73492	
1.75476	
1.7807	
1.8219	
1.8219	
1.82343	
1.80511	
1.79291	
1.76849	
1.7868	
1.78375	
1.78375	
1.77917	
1.78223	
1.78528	
1.78986	
1.79901	
1.79291	
1.83258	
1.84021	
1.85547	
1.85394	
1.86768	
1.84784	
1.82495	
1.79443	
1.77307	
1.76239	
1.72729	
1.71661	
1.6983	
1.71661	
1.75171	
1.79443	
1.81885	
1.81274	
1.82648	
1.83716	
1.84021	
1.82953	
1.81732	
1.80206	
1.79291	
1.79291	
1.78986	
1.78833	
1.77307	
1.75476	
1.75018	
1.74103	
1.76392	
1.77155	
1.76849	
1.76697	
1.75781	
1.77155	
1.79443	
1.81427	
1.82953	
1.84174	
1.828	
1.81427	
1.79901	
1.78223	
1.7807	
1.76544	
1.76086	
1.75171	
1.74713	
1.75781	
1.78375	
1.80969	
1.82037	
1.80969	
1.80969	
1.79291	
1.7868	
1.79291	
1.79138	
1.79138	
1.78833	
1.79138	
1.7746	
1.7807	
1.78528	
1.81274	
1.81122	
1.81427	
1.82953	
1.81427	
1.828	
1.84021	
1.88293	
1.89056	
1.87531	
1.82953	
1.78375	
1.75781	
1.73645	
1.72272	
1.74103	
1.73035	
1.72577	
1.72729	
1.73492	
1.77155	
1.78528	
1.79901	
1.7868	
1.79291	
1.78528	
1.77917	
1.77155	
1.76392	
1.76239	
1.75629	
1.76849	
1.78528	
1.80511	
1.83716	
1.86157	
1.88446	
1.90887	
1.88751	
1.86615	
1.83411	
1.81732	
1.78528	
1.74255	
1.70746	
1.6922	
1.69983	
1.70746	
1.73492	
1.7395	
1.74866	
1.74561	
1.74866	
1.75934	
1.75781	
1.76849	
1.76849	
1.77307	
1.77002	
1.77917	
1.77765	
1.78223	
1.77765	
1.78528	
1.79291	
1.80054	
1.80206	
1.80511	
1.80511	
1.80054	
1.81122	
1.80359	
1.78833	
1.77917	
1.77155	
1.76086	
1.76086	
1.81274	
1.84631	
1.89056	
1.91956	
1.89972	
1.8631	
1.83411	
1.79443	
1.7746	
1.73645	
1.70593	
1.66626	
1.66626	
1.66626	
1.70135	
1.75629	
1.78528	
1.77917	
1.7807	
1.81274	
1.81427	
1.82343	
1.80817	
1.78833	
1.76697	
1.75629	
1.75323	
1.73645	
1.73187	
1.72424	
1.74103	
1.75476	
1.79443	
1.80054	
1.80817	
1.80359	
1.80511	
1.7868	
1.79443	
1.79138	
1.78223	
1.7746	
1.76697	
1.76086	
1.76239	
1.77002	
1.74255	
1.77155	
1.81427	
1.82037	
1.82495	
1.85699	
1.88293	
1.87378	
1.85547	
1.83563	
1.83563	
1.83563	
1.81122	
1.7868	
1.77917	
1.74561	
1.73645	
1.72119	
1.72272	
1.70593	
1.69373	
1.70288	
1.70288	
1.71661	
1.73645	
1.74561	
1.74561	
1.75934	
1.76239	
1.80054	
1.80969	
1.81885	
1.81732	
1.80359	
1.78375	
1.77307	
1.77155	
1.76239	
1.75934	
1.76544	
1.78986	
1.79596	
1.80359	
1.80054	
1.79596	
1.79291	
1.78223	
1.7807	
1.77002	
1.76697	
1.77765	
1.80969	
1.81427	
1.8158	
1.80969	
1.79749	
1.78528	
1.77002	
1.75629	
1.73492	
1.73187	
1.71661	
1.72119	
1.73187	
1.74713	
1.76086	
1.80054	
1.80054	
1.80817	
1.80206	
1.79138	
1.78375	
1.76849	
1.79596	
1.80817	
1.80969	
1.81122	
1.8158	
1.8158	
1.8158	
1.79901	
1.81122	
1.80054	
1.77002	
1.74561	
1.73798	
1.7334	
1.71051	
1.71967	
1.71814	
1.72119	
1.73492	
1.75323	
1.75781	
1.76544	
1.76697	
1.77307	
1.7807	
1.77765	
1.77307	
1.76544	
1.76697	
1.77002	
1.7746	
1.76697	
1.79901	
1.83411	
1.85547	
1.85242	
1.83563	
1.82343	
1.80969	
1.79901	
1.79901	
1.79291	
1.77002	
1.75171	
1.73492	
1.74866	
1.75018	
1.76392	
1.81122	
1.80817	
1.80206	
1.7868	
1.78223	
1.77155	
1.76697	
1.75018	
1.76544	
1.76392	
1.75171	
1.7395	
1.74561	
1.76239	
1.7868	
1.79443	
1.79291	
1.79901	
1.79901	
1.79138	
1.77002	
1.7746	
1.76849	
1.78833	
1.78375	
1.78528	
1.80511	
1.82037	
1.81274	
1.79901	
1.79443	
1.77765	
1.77155	
1.75323	
1.73645	
1.71967	
1.70135	
1.69067	
1.70746	
1.71509	
1.6983	
1.70746	
1.72272	
1.73187	
1.73035	
1.73798	
1.73492	
1.74713	
1.74255	
1.74561	
1.75781	
1.77307	
1.78833	
1.7868	
1.79138	
1.81885	
1.8692	
1.87378	
1.87988	
1.86157	
1.82648	
1.77765	
1.74103	
1.70288	
1.67084	
1.6571	
1.63116	
1.62354	
1.65863	
1.69983	
1.71051	
1.72119	
1.73035	
1.75323	
1.75171	
1.75781	
1.76544	
1.75476	
1.75934	
1.76697	
1.77155	
1.78223	
1.79443	
1.79291	
1.79749	
1.78375	
1.76697	
1.7746	
1.80206	
1.82343	
1.83105	
1.85547	
1.84784	
1.8158	
1.7746	
1.75323	
1.72729	
1.70898	
1.71661	
1.7334	
1.72729	
1.71814	
1.73798	
1.75018	
1.74255	
1.73492	
1.73645	
1.73035	
1.72424	
1.70898	
1.71814	
1.72272	
1.73035	
1.73645	
1.74866	
1.75171	
1.74561	
1.74255	
1.74103	
1.76392	
1.7746	
1.78223	
1.77917	
1.77917	
1.77002	
1.77307	
1.77002	
1.77917	
1.79138	
1.78833	
1.79749	
1.81122	
1.79596	
1.76697	
1.79443	
1.7807	
1.77002	
1.74713	
1.7334	
1.72424	
1.70898	
1.71967	
1.71661	
1.72729	
1.72119	
1.71356	
1.70746	
1.73187	
1.74255	
1.7395	
1.73187	
1.73492	
1.73645	
1.7395	
1.74255	
1.74561	
1.76697	
1.76392	
1.76849	
1.77917	
1.78833	
1.78986	
1.7868	
1.77155	
1.79901	
1.85089	
1.86462	
1.85242	
1.828	
1.80817	
1.77307	
1.75018	
1.71814	
1.70593	
1.67694	
1.66626	
1.67084	
1.69983	
1.72882	
1.7395	
1.75018	
1.75629	
1.75934	
1.74255	
1.74561	
1.7395	
1.74103	
1.72577	
1.72272	
1.72882	
1.72882	
1.74561	
1.76239	
1.77917	
1.76544	
1.75629	
1.74255	
1.75018	
1.74713	
1.75171	
1.76086	
1.77002	
1.7746	
1.77307	
1.77765	
1.78375	
1.79291	
1.77155	
1.76544	
1.74866	
1.7334	
1.71967	
1.71356	
1.71967	
1.72577	
1.73645	
1.72272	
1.71814	
1.71509	
1.71051	
1.71356	
1.71967	
1.71814	
1.7334	
1.74866	
1.75323	
1.76392	
1.76239	
1.76086	
1.75323	
1.75018	
1.74255	
1.74255	
1.7395	
1.74255	
1.75018	
1.76697	
1.76239	
1.76239	
1.7746	
1.82037	
1.85242	
1.85242	
1.84784	
1.85394	
1.828	
1.7746	
1.74866	
1.72272	
1.6922	
1.65405	
1.63574	
1.6571	
1.66626	
1.66931	
1.68152	
1.69983	
1.72119	
1.73492	
1.75323	
1.75934	
1.7395	
1.74103	
1.73187	
1.7395	
1.74255	
1.75781	
1.7746	
1.77002	
1.78223	
1.77307	
1.7868	
1.77765	
1.77307	
1.76392	
1.74866	
1.73492	
1.71509	
1.70898	
1.71967	
1.7334	
1.73492	
1.73187	
1.72119	
1.71356	
1.71051	
1.72424	
1.71661	
1.71814	
1.71356	
1.70746	
1.72882	
1.73492	
1.7334	
1.73035	
1.75781	
1.75781	
1.75476	
1.76392	
1.78528	
1.78375	
1.76544	
1.78528	
1.79443	
1.80359	
1.79749	
1.78833	
1.77917	
1.75934	
1.72272	
1.69373	
1.6922	
1.69373	
1.69067	
1.69067	
1.69373	
1.6861	
1.69525	
1.70441	
1.72424	
1.72577	
1.74713	
1.74255	
1.76392	
1.75476	
1.77307	
1.7868	
1.78223	
1.78986	
1.80359	
1.80511	
1.78833	
1.76086	
1.72729	
1.70898	
1.69067	
1.68457	
1.68152	
1.6922	
1.66626	
1.66473	
1.67847	
1.69373	
1.72729	
1.73798	
1.74103	
1.72882	
1.72729	
1.75323	
1.75629	
1.75323	
1.74713	
1.74561	
1.74561	
1.74866	
1.74255	
1.73492	
1.74103	
1.75629	
1.75629	
1.75171	
1.74713	
1.74713	
1.7395	
1.74103	
1.72882	
1.71814	
1.70593	
1.69373	
1.70746	
1.73645	
1.76086	
1.75934	
1.76392	
1.79291	
1.80969	
1.79291	
1.77155	
1.75018	
1.72882	
1.70135	
1.6861	
1.68915	
1.68915	
1.70135	
1.6983	
1.71661	
1.71661	
1.71814	
1.72729	
1.73492	
1.73035	
1.72272	
1.73645	
1.73035	
1.72424	
1.74255	
1.78223	
1.81274	
1.81122	
1.79138	
1.77155	
1.75171	
1.72272	
1.69067	
1.66779	
1.651	
1.64032	
1.65253	
1.66931	
1.68915	
1.6983	
1.71814	
1.72577	
1.73035	
1.72424	
1.72882	
1.7334	
1.72424	
1.72729	
1.72424	
1.73035	
1.72424	
1.72729	
1.73035	
1.7395	
1.74255	
1.74103	
1.74866	
1.76697	
1.76239	
1.76392	
1.75781	
1.75323	
1.80054	
1.81732	
1.80817	
1.7807	
1.75781	
1.72272	
1.69983	
1.68152	
1.67236	
1.67847	
1.67389	
1.71051	
1.74255	
1.77307	
1.76239	
1.75171	
1.74866	
1.73492	
1.71356	
1.69983	
1.68762	
1.66931	
1.66016	
1.65863	
1.66473	
1.68152	
1.71051	
1.71356	
1.70593	
1.69983	
1.72119	
1.72119	
1.76697	
1.7807	
1.78375	
1.80969	
1.81122	
1.80054	
1.77307	
1.75323	
1.72424	
1.69983	
1.66779	
1.6449	
1.64948	
1.65558	
1.66016	
1.68457	
1.71051	
1.70593	
1.71356	
1.72119	
1.72272	
1.72272	
1.72577	
1.71967	
1.72424	
1.72272	
1.73187	
1.72882	
1.72119	
1.73492	
1.7334	
1.7334	
1.7334	
1.75323	
1.76086	
1.75781	
1.74866	
1.73798	
1.73187	
1.72882	
1.71051	
1.70135	
1.70593	
1.70288	
1.70135	
1.6922	
1.6983	
1.6983	
1.70898	
1.71051	
1.71661	
1.71814	
1.71356	
1.71661	
1.71356	
1.73187	
1.72424	
1.75781	
1.79596	
1.8219	
1.81122	
1.79596	
1.77155	
1.74103	
1.70898	
1.69373	
1.69067	
1.6922	
1.67694	
1.65863	
1.68915	
1.72272	
1.74255	
1.75323	
1.76392	
1.78528	
1.79443	
1.78833	
1.76086	
1.7395	
1.71051	
1.69067	
1.67694	
1.66626	
1.64948	
1.63879	
1.64337	
1.651	
1.66931	
1.68457	
1.69373	
1.6983	
1.71509	
1.71661	
1.71661	
1.71051	
1.71814	
1.70746	
1.71814	
1.71509	
1.71661	
1.71661	
1.70135	
1.71356	
1.72119	
1.72424	
1.71967	
1.70898	
1.70288	
1.70898	
1.70746	
1.71661	
1.71509	
1.70441	
1.71356	
1.71814	
1.72272	
1.71051	
1.71356	
1.71814	
1.7395	
1.75018	
1.75781	
1.74866	
1.74103	
1.72729	
1.72272	
1.72577	
1.72119	
1.71356	
1.70746	
1.70898	
1.72424	
1.73645	
1.75171	
1.76544	
1.76392	
1.76086	
1.75781	
1.74255	
1.73798	
1.72272	
1.71509	
1.70593	
1.6983	
1.6861	
1.67084	
1.65405	
1.6571	
1.66931	
1.68304	
1.68457	
1.68915	
1.71661	
1.7334	
1.75171	
1.76697	
1.77917	
1.7807	
1.80054	
1.79138	
1.78223	
1.77155	
1.75018	
1.72577	
1.71661	
1.6983	
1.67389	
1.67236	
1.67084	
1.6571	
1.65405	
1.66931	
1.68304	
1.68304	
1.68762	
1.70441	
1.71051	
1.72119	
1.72272	
1.71661	
1.71967	
1.71356	
1.6983	
1.67694	
1.67542	
1.67847	
1.67847	
1.66779	
1.67694	
1.6922	
1.68762	
1.70593	
1.70593	
1.71814	
1.72119	
1.71661	
1.70288	
1.70441	
1.72729	
1.7334	
1.73187	
1.72119	
1.72119	
1.70746	
1.70135	
1.67847	
1.70441	
1.72729	
1.74561	
1.75018	
1.77307	
1.79291	
1.7868	
1.76544	
1.74561	
1.72272	
1.6922	
1.67694	
1.65405	
1.67236	
1.67542	
1.68152	
1.67847	
1.69373	
1.70135	
1.69983	
1.70441	
1.6983	
1.69525	
1.69525	
1.6983	
1.69525	
1.70135	
1.69983	
1.70593	
1.70288	
1.70593	
1.70135	
1.70135	
1.72882	
1.72272	
1.73798	
1.75323	
1.75781	
1.74866	
1.73798	
1.7395	
1.7807	
1.77307	
1.75476	
1.72882	
1.70593	
1.6922	
1.68152	
1.68304	
1.67542	
1.66473	
1.65405	
1.65863	
1.67389	
1.68915	
1.71051	
1.7395	
1.75323	
1.77002	
1.76849	
1.75018	
1.7334	
1.71051	
1.70898	
1.68915	
1.67389	
1.66473	
1.66931	
1.67236	
1.69678	
1.69983	
1.70288	
1.72272	
1.72424	
1.72577	
1.73035	
1.73187	
1.71661	
1.73035	
1.75323	
1.7807	
1.81427	
1.82495	
1.80511	
1.7868	
1.76849	
1.7395	
1.71967	
1.68762	
1.6571	
1.63422	
1.63879	
1.62811	
1.64185	
1.6571	
1.66168	
1.67694	
1.6922	
1.70135	
1.69067	
1.71051	
1.71051	
1.73035	
1.72882	
1.7334	
1.73187	
1.72882	
1.71967	
1.73187	
1.75781	
1.76392	
1.75476	
1.74713	
1.73187	
1.72119	
1.70593	
1.68762	
1.67694	
1.66321	
1.65863	
1.66321	
1.65405	
1.66016	
1.66168	
1.68762	
1.69525	
1.70135	
1.69983	
1.70288	
1.70593	
1.71814	
1.70898	
1.73187	
1.74713	
1.73798	
1.73187	
1.72424	
1.71967	
1.71814	
1.70746	
1.69373	
1.69983	
1.68457	
1.67847	
1.69678	
1.70898	
1.72577	
1.73645	
1.77155	
1.77002	
1.76392	
1.75323	
1.75018	
1.73035	
1.71814	
1.69525	
1.67694	
1.66626	
1.66016	
1.64948	
1.65253	
1.66931	
1.67542	
1.68762	
1.72119	
1.75781	
1.7746	
1.80054	
1.80359	
1.81732	
1.8158	
1.79138	
1.76086	
1.72882	
1.71661	
1.69067	
1.65863	
1.63574	
1.61438	
1.60675	
1.62354	
1.64032	
1.66321	
1.67542	
1.67847	
1.67389	
1.67389	
1.68304	
1.68915	
1.70135	
1.69983	
1.69678	
1.70135	
1.70746	
1.69678	
1.70135	
1.70593	
1.71051	
1.70898	
1.70746	
1.71509	
1.70441	
1.70441	
1.70288	
1.6983	
1.68762	
1.68152	
1.67389	
1.69525	
1.70441	
1.70746	
1.72577	
1.72577	
1.73035	
1.71509	
1.71356	
1.70288	
1.69067	
1.67542	
1.67084	
1.67542	
1.68152	
1.68304	
1.69678	
1.71356	
1.72119	
1.73187	
1.73035	
1.72424	
1.72729	
1.76544	
1.80206	
1.80817	
1.79138	
1.77917	
1.76392	
1.7334	
1.70288	
1.66626	
1.63879	
1.59607	
1.57776	
1.58386	
1.61285	
1.61133	
1.62811	
1.67236	
1.68457	
1.68457	
1.69373	
1.73492	
1.74255	
1.74866	
1.74255	
1.73645	
1.71967	
1.72882	
1.71356	
1.70441	
1.69067	
1.66931	
1.66321	
1.65863	
1.66626	
1.66473	
1.66626	
1.66473	
1.67694	
1.68457	
1.69983	
1.70593	
1.70135	
1.70135	
1.69678	
1.68457	
1.68152	
1.67542	
1.66321	
1.67236	
1.67847	
1.6983	
1.70135	
1.71814	
1.71661	
1.74255	
1.7868	
1.79443	
1.78833	
1.75781	
1.7334	
1.71051	
1.68762	
1.65863	
1.63574	
1.61438	
1.59149	
1.61591	
1.64337	
1.66473	
1.68152	
1.67542	
1.66931	
1.68915	
1.69373	
1.69983	
1.6861	
1.6861	
1.67084	
1.66779	
1.66779	
1.67542	
1.68762	
1.71661	
1.7395	
1.74255	
1.7395	
1.72577	
1.71814	
1.69525	
1.68457	
1.67236	
1.66016	
1.6449	
1.63879	
1.63269	
1.65253	
1.66168	
1.66626	
1.68304	
1.67694	
1.68304	
1.69067	
1.70135	
1.69983	
1.6983	
1.69678	
1.70441	
1.73798	
1.75476	
1.77765	
1.7807	
1.7807	
1.75934	
1.73645	
1.71356	
1.68152	
1.64948	
1.63727	
1.62354	
1.60828	
1.61285	
1.61896	
1.64032	
1.67847	
1.70746	
1.71814	
1.70746	
1.6861	
1.68457	
1.66321	
1.65558	
1.64948	
1.65253	
1.6571	
1.64185	
1.6571	
1.66473	
1.67542	
1.68152	
1.69678	
1.6983	
1.71051	
1.71356	
1.73798	
1.73645	
1.7334	
1.73035	
1.74561	
1.7395	
1.72119	
1.70288	
1.67847	
1.66626	
1.64337	
1.6449	
1.65558	
1.66626	
1.66321	
1.66016	
1.67084	
1.66321	
1.66931	
1.67236	
1.6861	
1.68457	
1.70135	
1.70135	
1.70135	
1.7334	
1.7395	
1.75018	
1.74866	
1.76849	
1.79291	
1.77765	
1.7395	
1.71661	
1.68762	
1.66626	
1.63269	
1.59912	
1.58691	
1.56555	
1.5625	
1.57013	
1.61133	
1.63422	
1.65253	
1.66626	
1.67542	
1.68304	
1.68915	
1.68915	
1.68152	
1.67542	
1.67542	
1.68457	
1.67694	
1.68915	
1.68762	
1.71051	
1.70898	
1.71509	
1.70288	
1.70135	
1.69525	
1.68152	
1.67694	
1.66931	
1.66321	
1.64948	
1.65405	
1.66321	
1.67389	
1.67084	
1.66626	
1.66779	
1.68152	
1.67847	
1.67389	
1.69067	
1.69983	
1.71814	
1.72119	
1.71051	
1.70441	
1.69678	
1.71509	
1.71814	
1.73187	
1.72424	
1.6983	
1.68457	
1.67694	
1.66168	
1.65863	
1.64337	
1.62964	
1.62506	
1.6449	
1.63879	
1.64948	
1.67084	
1.6922	
1.69525	
1.71509	
1.74713	
1.72119	
1.71356	
1.69678	
1.68457	
1.66626	
1.651	
1.62506	
1.61133	
1.62506	
1.651	
1.66473	
1.67847	
1.68457	
1.68304	
1.67694	
1.70288	
1.69525	
1.68915	
1.68304	
1.66321	
1.66016	
1.64642	
1.64642	
1.64948	
1.64948	
1.66016	
1.66626	
1.67542	
1.68304	
1.67694	
1.67542	
1.69678	
1.69067	
1.68304	
1.67542	
1.66626	
1.66626	
1.66931	
1.67542	
1.67847	
1.68457	
1.69678	
1.71967	
1.71661	
1.71356	
1.70441	
1.69525	
1.67236	
1.66473	
1.66016	
1.64642	
1.64337	
1.64032	
1.65253	
1.66626	
1.67389	
1.66779	
1.66473	
1.66779	
1.67389	
1.67084	
1.66321	
1.65253	
1.64948	
1.64642	
1.67389	
1.68915	
1.72119	
1.7395	
1.75018	
1.7868	
1.79138	
1.78223	
1.74713	
1.69373	
1.6571	
1.62506	
1.60065	
1.56708	
1.5564	
1.53503	
1.54572	
1.5686	
1.61285	
1.64032	
1.65863	
1.67236	
1.67084	
1.67236	
1.66626	
1.66168	
1.66473	
1.67847	
1.68152	
1.68152	
1.67236	
1.69678	
1.70135	
1.71356	
1.70441	
1.69067	
1.6922	
1.68304	
1.67084	
1.6571	
1.65405	
1.64642	
1.65253	
1.651	
1.64642	
1.65558	
1.651	
1.65863	
1.65558	
1.66016	
1.66168	
1.64948	
1.6571	
1.66168	
1.65863	
1.67847	
1.69525	
1.70288	
1.6983	
1.68304	
1.67694	
1.66931	
1.66473	
1.651	
1.66626	
1.65863	
1.67084	
1.67542	
1.67389	
1.66473	
1.6571	
1.6571	
1.64337	
1.64185	
1.64032	
1.64185	
1.64948	
1.71051	
1.7395	
1.74561	
1.73035	
1.75476	
1.73035	
1.71661	
1.69373	
1.66168	
1.63269	
1.6037	
1.58997	
1.58081	
1.58844	
1.58997	
1.6037	
1.62964	
1.63879	
1.64185	
1.6449	
1.65405	
1.65558	
1.65863	
1.66168	
1.67084	
1.66473	
1.66473	
1.6571	
1.70593	
1.71661	
1.71967	
1.71051	
1.69373	
1.6861	
1.68152	
1.66626	
1.651	
1.64642	
1.63116	
1.62506	
1.62964	
1.63879	
1.64642	
1.6571	
1.66779	
1.66016	
1.68762	
1.6861	
1.67847	
1.66931	
1.66321	
1.66168	
1.65558	
1.64032	
1.63879	
1.63879	
1.64337	
1.68304	
1.74103	
1.77917	
1.76392	
1.74866	
1.71967	
1.69678	
1.65863	
1.62964	
1.58997	
1.5686	
1.56097	
1.55182	
1.58386	
1.61285	
1.62201	
1.63727	
1.65558	
1.651	
1.64642	
1.64948	
1.65253	
1.63879	
1.65405	
1.67236	
1.68152	
1.68457	
1.68304	
1.67847	
1.65863	
1.651	
1.63422	
1.6449	
1.64642	
1.63422	
1.63116	
1.65405	
1.67847	
1.67542	
1.70288	
1.6983	
1.6861	
1.66931	
1.65863	
1.63269	
1.61591	
1.60217	
1.60217	
1.58691	
1.59607	
1.58997	
1.60065	
1.62201	
1.63574	
1.6449	
1.64337	
1.64185	
1.63116	
1.64185	
1.64185	
1.64948	
1.6449	
1.6449	
1.6571	
1.6861	
1.68915	
1.70288	
1.70898	
1.70898	
1.69983	
1.68915	
1.67389	
1.64642	
1.63269	
1.60217	
1.58234	
1.58234	
1.59149	
1.6098	
1.60828	
1.63574	
1.64948	
1.66779	
1.68915	
1.68762	
1.68152	
1.66016	
1.64642	
1.6449	
1.65253	
1.63727	
1.65558	
1.69067	
1.6983	
1.68762	
1.67236	
1.64642	
1.63269	
1.60828	
1.5976	
1.57318	
1.57013	
1.56403	
1.56555	
1.58234	
1.60217	
1.61591	
1.62659	
1.63574	
1.63116	
1.63116	
1.64185	
1.6449	
1.6449	
1.64032	
1.64032	
1.64642	
1.65863	
1.64642	
1.64337	
1.6449	
1.64948	
1.64185	
1.65253	
1.6449	
1.64032	
1.66321	
1.67084	
1.69067	
1.6922	
1.69067	
1.6861	
1.68152	
1.66473	
1.67084	
1.64642	
1.62659	
1.61285	
1.6098	
1.60828	
1.5976	
1.61896	
1.62201	
1.63574	
1.63574	
1.63422	
1.63116	
1.63879	
1.62811	
1.62964	
1.64185	
1.65405	
1.67389	
1.67847	
1.6861	
1.67542	
1.66931	
1.66779	
1.66473	
1.65405	
1.65863	
1.6449	
1.63116	
1.63116	
1.63727	
1.63422	
1.62506	
1.62506	
1.62354	
1.63727	
1.64032	
1.63879	
1.66321	
1.66931	
1.65863	
1.65253	
1.64642	
1.64337	
1.64337	
1.62811	
1.63116	
1.62048	
1.61285	
1.62506	
1.63269	
1.63269	
1.64032	
1.64185	
1.64337	
1.63574	
1.63727	
1.64032	
1.63879	
1.64948	
1.64185	
1.64337	
1.65558	
1.68762	
1.6983	
1.6983	
1.68915	
1.67236	
1.6571	
1.66168	
1.651	
1.65558	
1.65253	
1.62811	
1.60522	
1.58234	
1.5976	
1.58997	
1.59912	
1.62659	
1.62201	
1.62354	
1.62201	
1.63879	
1.66321	
1.68304	
1.69525	
1.70135	
1.6922	
1.67236	
1.63727	
1.62659	
1.60675	
1.59454	
1.58691	
1.57776	
1.58386	
1.58844	
1.58997	
1.6037	
1.60675	
1.60675	
1.62201	
1.62354	
1.62659	
1.63269	
1.64642	
1.66168	
1.66473	
1.67847	
1.68457	
1.68457	
1.69373	
1.67847	
1.66473	
1.67236	
1.65253	
1.6449	
1.63422	
1.61896	
1.6098	
1.60065	
1.6037	
1.5976	
1.60675	
1.60828	
1.60828	
1.61591	
1.62964	
1.62964	
1.63574	
1.63574	
1.63422	
1.63574	
1.62659	
1.63269	
1.64032	
1.64337	
1.64032	
1.64185	
1.63116	
1.63574	
1.63422	
1.651	
1.67084	
1.66779	
1.68152	
1.67389	
1.67084	
1.65558	
1.65558	
1.64337	
1.63727	
1.62354	
1.6098	
1.60828	
1.61285	
1.61591	
1.62659	
1.6449	
1.65405	
1.65253	
1.64948	
1.65558	
1.64337	
1.65558	
1.66016	
1.71051	
1.70898	
1.68915	
1.68762	
1.66931	
1.6449	
1.62048	
1.60828	
1.62354	
1.61591	
1.59149	
1.57776	
1.60065	
1.6098	
1.6037	
1.5976	
1.61438	
1.6037	
1.60522	
1.60522	
1.62354	
1.62354	
1.62964	
1.63116	
1.63422	
1.62964	
1.62659	
1.62506	
1.61591	
1.62201	
1.61896	
1.62506	
1.62354	
1.62811	
1.62201	
1.62811	
1.62506	
1.62659	
1.63574	
1.63879	
1.6449	
1.64337	
1.6571	
1.68304	
1.72272	
1.72577	
1.71814	
1.68762	
1.66626	
1.63574	
1.61285	
1.5976	
1.60065	
1.60828	
1.59607	
1.59302	
1.59454	
1.60675	
1.60217	
1.6098	
1.62201	
1.61896	
1.60675	
1.62964	
1.63879	
1.64337	
1.65405	
1.66016	
1.66779	
1.66168	
1.66779	
1.66016	
1.65405	
1.63422	
1.62354	
1.60217	
1.60828	
1.61438	
1.60522	
1.61133	
1.61896	
1.62048	
1.63422	
1.66321	
1.66168	
1.66321	
1.6571	
1.66931	
1.66168	
1.65405	
1.65405	
1.651	
1.64185	
1.62201	
1.61438	
1.59912	
1.59454	
1.59454	
1.62201	
1.61896	
1.6098	
1.5976	
1.59149	
1.60675	
1.61591	
1.61896	
1.62354	
1.63269	
1.62964	
1.63269	
1.63116	
1.6449	
1.651	
1.66473	
1.67084	
1.71661	
1.72882	
1.70746	
1.69373	
1.66321	
1.64337	
1.63422	
1.61896	
1.59454	
1.60217	
1.62354	
1.64032	
1.6571	
1.67694	
1.69983	
1.69373	
1.69983	
1.70135	
1.68304	
1.65863	
1.6449	
1.62201	
1.6098	
1.59302	
1.57471	
1.56097	
1.54724	
1.55029	
1.55029	
1.58234	
1.59454	
1.59302	
1.59302	
1.62506	
1.62201	
1.62659	
1.62659	
1.62354	
1.62811	
1.62964	
1.63422	
1.63269	
1.63879	
1.64032	
1.651	
1.64948	
1.67084	
1.67236	
1.67389	
1.65863	
1.64948	
1.64185	
1.61896	
1.60217	
1.58386	
1.58997	
1.59454	
1.61438	
1.61285	
1.63116	
1.64948	
1.66016	
1.66931	
1.66168	
1.66016	
1.67084	
1.67542	
1.68762	
1.68304	
1.67542	
1.66168	
1.65253	
1.64032	
1.63727	
1.62354	
1.59454	
1.56555	
1.57623	
1.57623	
1.57928	
1.58386	
1.60522	
1.60675	
1.62048	
1.62201	
1.62354	
1.61591	
1.60828	
1.62201	
1.65558	
1.66016	
1.65863	
1.64642	
1.64185	
1.64185	
1.62964	
1.62811	
1.6098	
1.60828	
1.61438	
1.62048	
1.62201	
1.62048	
1.62964	
1.62048	
1.61896	
1.6098	
1.60217	
1.59302	
1.59302	
1.59454	
1.60522	
1.61896	
1.61285	
1.61438	
1.62201	
1.61896	
1.62048	
1.62506	
1.61896	
1.61285	
1.61285	
1.62201	
1.61591	
1.62201	
1.62506	
1.62964	
1.63727	
1.63422	
1.63422	
1.62964	
1.62506	
1.61591	
1.62201	
1.62964	
1.63727	
1.63116	
1.62354	
1.62506	
1.62048	
1.62354	
1.60675	
1.60522	
1.59912	
1.59149	
1.59302	
1.59454	
1.59302	
1.61133	
1.60675	
1.61285	
1.61896	
1.61438	
1.61133	
1.60522	
1.62354	
1.63422	
1.66321	
1.65863	
1.66626	
1.67542	
1.68457	
1.67542	
1.66168	
1.63422	
1.61133	
1.57928	
1.57318	
1.55792	
1.54724	
1.55029	
1.55945	
1.57166	
1.57318	
1.59454	
1.60675	
1.62354	
1.62201	
1.60675	
1.60828	
1.60065	
1.6037	
1.60217	
1.60522	
1.6037	
1.60828	
1.60522	
1.60522	
1.6037	
1.6098	
1.61133	
1.61285	
1.62354	
1.64337	
1.65405	
1.68152	
1.69983	
1.69678	
1.68304	
1.65405	
1.63422	
1.60828	
1.58691	
1.5625	
1.53656	
1.53809	
1.53961	
1.53961	
1.54572	
1.57471	
1.59302	
1.60522	
1.61591	
1.63269	
1.62811	
1.62354	
1.62354	
1.62201	
1.61591	
1.60828	
1.60675	
1.5976	
1.59912	
1.58386	
1.59302	
1.5976	
1.59912	
1.6037	
1.61591	
1.63574	
1.62659	
1.62964	
1.62048	
1.61896	
1.62048	
1.62201	
1.61896	
1.69525	
1.7334	
1.73798	
1.72272	
1.69373	
1.66321	
1.62964	
1.61285	
1.58081	
1.56403	
1.53046	
1.51062	
1.49841	
1.51367	
1.55182	
1.57623	
1.60217	
1.62048	
1.62811	
1.63269	
1.63422	
1.62964	
1.62506	
1.6098	
1.6098	
1.6098	
1.60217	
1.58997	
1.59607	
1.58844	
1.59302	
1.59607	
1.59302	
1.59302	
1.58691	
1.60675	
1.61896	
1.62048	
1.61133	
1.60828	
1.61896	
1.62201	
1.63422	
1.62964	
1.63269	
1.61285	
1.60065	
1.58844	
1.58691	
1.58234	
1.57623	
1.57928	
1.60065	
1.5976	
1.59302	
1.59607	
1.60217	
1.61591	
1.61285	
1.6098	
1.60217	
1.59607	
1.58997	
1.60828	
1.63574	
1.65863	
1.68457	
1.67847	
1.66931	
1.66016	
1.64642	
1.61438	
1.59607	
1.56708	
1.54419	
1.53809	
1.53656	
1.54114	
1.54572	
1.55792	
1.57166	
1.58997	
1.60065	
1.60828	
1.61133	
1.61133	
1.61133	
1.6098	
1.60675	
1.60828	
1.62048	
1.62354	
1.62506	
1.61591	
1.61285	
1.60065	
1.6037	
1.6037	
1.62354	
1.62506	
1.62354	
1.61438	
1.60065	
1.62964	
1.64642	
1.64948	
1.64032	
1.64948	
1.63879	
1.61591	
1.61285	
1.60065	
1.57471	
1.5625	
1.55029	
1.5625	
1.57166	
1.57471	
1.56708	
1.57928	
1.59454	
1.58997	
1.59607	
1.59607	
1.59607	
1.58997	
1.58997	
1.58691	
1.58997	
1.58386	
1.57928	
1.59607	
1.59454	
1.62964	
1.64185	
1.66626	
1.66168	
1.65405	
1.64032	
1.62811	
1.60828	
1.59454	
1.58234	
1.56708	
1.5564	
1.54114	
1.54724	
1.57928	
1.59149	
1.62201	
1.64337	
1.6449	
1.63422	
1.61438	
1.5976	
1.57928	
1.56403	
1.56097	
1.5564	
1.5625	
1.55945	
1.57471	
1.60217	
1.62964	
1.64032	
1.63727	
1.62964	
1.60217	
1.58386	
1.57166	
1.5686	
1.55182	
1.55792	
1.55487	
1.55182	
1.56403	
1.57166	
1.59149	
1.67847	
1.74255	
1.77002	
1.76392	
1.7334	
1.71814	
1.67542	
1.62964	
1.57471	
1.53656	
1.49231	
1.4679	
1.45721	
1.45569	
1.50909	
1.54572	
1.57318	
1.62964	
1.63422	
1.61133	
1.60217	
1.58234	
1.57318	
1.5564	
1.54419	
1.52588	
1.5274	
1.53809	
1.53961	
1.57776	
1.65558	
1.69067	
1.70746	
1.73492	
1.73187	
1.71661	
1.67236	
1.62506	
1.58691	
1.5686	
1.55182	
1.5274	
1.53351	
1.53809	
1.54877	
1.54877	
1.56403	
1.56708	
1.55945	
1.56097	
1.56708	
1.54266	
1.54724	
1.55182	
1.54572	
1.5564	
1.5625	
1.57928	
1.59149	
1.58997	
1.59912	
1.59607	
1.59302	
1.61591	
1.63269	
1.62811	
1.62506	
1.62659	
1.61896	
1.61896	
1.60522	
1.57776	
1.56708	
1.55945	
1.55182	
1.55945	
1.57471	
1.57471	
1.56097	
1.58691	
1.59454	
1.60217	
1.58997	
1.58997	
1.5686	
1.57166	
1.57318	
1.59149	
1.6037	
1.59912	
1.59912	
1.60217	
1.62048	
1.60675	
1.61285	
1.6098	
1.6098	
1.5976	
1.58844	
1.62964	
1.67694	
1.66473	
1.66779	
1.67084	
1.65558	
1.63422	
1.62964	
1.61438	
1.58691	
1.5564	
1.52283	
1.51215	
1.50757	
1.54419	
1.58691	
1.58844	
1.58997	
1.57928	
1.57776	
1.57623	
1.5686	
1.5625	
1.55182	
1.54419	
1.54114	
1.54419	
1.58234	
1.60217	
1.6037	
1.62048	
1.61438	
1.61285	
1.60828	
1.60828	
1.59607	
1.60522	
1.61896	
1.61438	
1.60217	
1.58691	
1.58691	
1.57318	
1.57928	
1.58234	
1.58691	
1.57623	
1.57471	
1.59149	
1.61133	
1.6098	
1.6098	
1.6037	
1.62659	
1.62354	
1.6037	
1.60065	
1.60522	
1.6098	
1.60065	
1.60217	
1.59149	
1.59302	
1.59912	
1.60522	
1.61285	
1.63116	
1.63574	
1.62811	
1.61591	
1.60065	
1.58997	
1.56403	
1.55945	
1.55945	
1.56097	
1.54419	
1.55182	
1.55029	
1.54877	
1.57013	
1.59454	
1.60828	
1.59912	
1.5976	
1.57166	
1.5625	
1.57166	
1.59454	
1.60065	
1.62506	
1.62506	
1.62048	
1.62201	
1.59912	
1.59454	
1.57166	
1.5686	
1.57318	
1.57013	
1.55945	
1.56097	
1.55792	
1.60065	
1.61591	
1.61133	
1.61285	
1.60828	
1.5976	
1.58997	
1.58691	
1.56403	
1.56097	
1.54724	
1.55182	
1.5564	
1.57318	
1.60828	
1.61285	
1.64032	
1.6861	
1.70135	
1.68457	
1.66473	
1.63269	
1.61591	
1.57928	
1.55182	
1.51978	
1.50299	
1.51367	
1.57166	
1.60065	
1.62354	
1.62506	
1.62964	
1.63116	
1.61591	
1.59302	
1.57013	
1.55182	
1.53656	
1.52893	
1.57928	
1.60522	
1.61285	
1.61896	
1.62201	
1.62201	
1.61285	
1.59607	
1.58386	
1.5564	
1.54419	
1.53351	
1.54114	
1.55945	
1.56403	
1.5686	
1.57776	
1.61285	
1.62354	
1.63879	
1.63422	
1.63269	
1.61285	
1.60065	
1.59149	
1.58234	
1.5686	
1.55945	
1.56403	
1.5564	
1.55487	
1.5564	
1.57471	
1.60828	
1.64032	
1.65253	
1.66779	
1.66321	
1.6571	
1.64032	
1.61591	
1.59607	
1.5686	
1.55487	
1.54114	
1.52893	
1.51825	
1.52588	
1.54572	
1.56097	
1.57318	
1.58234	
1.59607	
1.5976	
1.63727	
1.71356	
1.75171	
1.76239	
1.76392	
1.72882	
1.6922	
1.66779	
1.62506	
1.58691	
1.54724	
1.51215	
1.47095	
1.46942	
1.4801	
1.50909	
1.53503	
1.56097	
1.57166	
1.57013	
1.56097	
1.56097	
1.57776	
1.6037	
1.61438	
1.62048	
1.63116	
1.64185	
1.69678	
1.6983	
1.69067	
1.66626	
1.651	
1.61591	
1.57623	
1.56708	
1.54266	
1.53046	
1.50299	
1.51062	
1.53046	
1.57013	
1.57928	
1.57928	
1.57776	
1.57928	
1.57928	
1.58844	
1.58844	
1.58844	
1.59607	
1.59149	
1.59454	
1.58386	
1.59149	
1.59607	
1.61896	
1.72577	
1.75323	
1.74713	
1.71661	
1.68915	
1.65863	
1.62506	
1.57623	
1.54724	
1.53198	
1.50604	
1.47705	
1.48773	
1.51825	
1.56708	
1.60217	
1.63727	
1.62659	
1.60522	
1.59149	
1.57623	
1.57623	
1.57471	
1.57166	
1.56708	
1.56555	
1.57928	
1.58386	
1.58386	
1.58844	
1.5976	
1.60675	
1.62964	
1.65863	
1.66168	
1.65558	
1.65405	
1.64185	
1.66016	
1.67084	
1.69067	
1.6861	
1.6449	
1.61285	
1.58691	
1.57471	
1.55182	
1.53809	
1.50604	
1.49841	
1.48773	
1.49078	
1.50299	
1.53198	
1.54877	
1.57013	
1.58386	
1.57928	
1.58234	
1.58691	
1.59607	
1.6098	
1.62811	
1.67542	
1.69525	
1.68304	
1.66779	
1.66473	
1.64642	
1.62506	
1.59149	
1.57471	
1.55487	
1.52893	
1.51062	
1.51672	
1.52283	
1.53809	
1.57318	
1.58997	
1.58081	
1.5686	
1.57928	
1.58844	
1.58997	
1.58997	
1.58997	
1.58234	
1.58234	
1.57318	
1.57318	
1.58081	
1.57623	
1.59149	
1.60065	
1.6037	
1.59912	
1.61133	
1.60522	
1.6098	
1.60065	
1.59454	
1.58386	
1.59149	
1.5976	
1.5976	
1.60675	
1.60828	
1.60828	
1.61896	
1.62201	
1.62048	
1.62354	
1.62811	
1.64642	
1.63879	
1.62964	
1.62354	
1.59607	
1.57776	
1.56403	
1.56097	
1.55945	
1.57318	
1.57776	
1.57928	
1.57928	
1.57928	
1.59607	
1.59149	
1.58997	
1.56708	
1.58844	
1.59302	
1.60217	
1.60065	
1.62506	
1.63574	
1.66473	
1.66016	
1.63879	
1.63269	
1.6037	
1.58691	
1.58081	
1.57776	
1.56097	
1.5564	
1.53503	
1.53656	
1.54419	
1.55792	
1.55792	
1.58386	
1.63116	
1.64337	
1.64642	
1.63727	
1.63574	
1.62506	
1.62201	
1.60675	
1.59149	
1.58081	
1.57166	
1.5564	
1.56403	
1.57318	
1.5686	
1.57166	
1.57928	
1.58997	
1.59454	
1.59454	
1.59607	
1.59454	
1.58997	
1.59454	
1.5976	
1.59454	
1.58997	
1.58386	
1.58234	
1.57776	
1.58386	
1.5976	
1.6037	
1.61438	
1.62811	
1.63727	
1.66016	
1.67542	
1.66779	
1.66626	
1.6449	
1.62354	
1.59302	
1.56708	
1.54572	
1.54419	
1.54266	
1.55792	
1.55792	
1.56403	
1.58691	
1.59149	
1.59302	
1.58234	
1.59912	
1.61285	
1.61896	
1.61285	
1.60675	
1.5976	
1.60065	
1.58997	
1.59607	
1.60675	
1.58691	
1.59149	
1.60217	
1.61285	
1.61133	
1.62354	
1.62811	
1.62659	
1.61438	
1.60828	
1.59912	
1.57928	
1.57623	
1.55792	
1.5625	
1.58234	
1.58386	
1.58081	
1.58997	
1.5976	
1.60675	
1.60522	
1.60675	
1.60065	
1.58386	
1.61438	
1.62048	
1.62354	
1.60675	
1.6037	
1.57776	
1.58691	
1.5686	
1.55792	
1.55792	
1.55182	
1.55182	
1.55945	
1.56708	
1.57318	
1.58691	
1.5976	
1.60675	
1.60522	
1.60522	
1.5976	
1.60828	
1.6098	
1.62201	
1.62506	
1.61591	
1.61133	
1.60065	
1.60828	
1.61285	
1.62811	
1.65863	
1.65253	
1.63727	
1.63269	
1.62048	
1.6098	
1.60217	
1.58997	
1.57623	
1.57776	
1.56708	
1.55029	
1.55945	
1.56708	
1.57776	
1.58386	
1.60828	
1.59454	
1.57623	
1.58691	
1.57318	
1.58386	
1.58386	
1.59912	
1.60522	
1.62964	
1.63269	
1.62964	
1.62354	
1.62201	
1.64337	
1.66779	
1.6861	
1.68304	
1.66016	
1.63422	
1.60522	
1.57623	
1.57776	
1.56403	
1.54572	
1.5274	
1.52283	
1.53809	
1.5274	
1.54572	
1.57166	
1.5976	
1.59912	
1.5976	
1.58386	
1.58386	
1.58081	
1.57928	
1.57776	
1.57166	
1.57623	
1.58844	
1.59454	
1.59454	
1.61133	
1.61133	
1.61438	
1.60217	
1.59302	
1.57928	
1.57928	
1.57318	
1.58234	
1.60522	
1.60522	
1.60065	
1.62201	
1.63422	
1.66321	
1.70288	
1.71509	
1.70441	
1.67542	
1.63422	
1.61133	
1.59912	
1.58234	
1.5625	
1.56708	
1.54877	
1.54572	
1.55182	
1.55945	
1.55487	
1.5625	
1.55182	
1.55182	
1.5564	
1.5564	
1.55945	
1.56097	
1.57471	
1.58691	
1.61591	
1.651	
1.65405	
1.6571	
1.6449	
1.62811	
1.61285	
1.60065	
1.57928	
1.5564	
1.53198	
1.51367	
1.51215	
1.50604	
1.52283	
1.54877	
1.54724	
1.56097	
1.56708	
1.57471	
1.57776	
1.57928	
1.58081	
1.57623	
1.57776	
1.5686	
1.57623	
1.59454	
1.59912	
1.60217	
1.60217	
1.59454	
1.58997	
1.57318	
1.57776	
1.58691	
1.57623	
1.57471	
1.56097	
1.5686	
1.5625	
1.57318	
1.5686	
1.57623	
1.57928	
1.57166	
1.57623	
1.56708	
1.59454	
1.59912	
1.62506	
1.65405	
1.66168	
1.65405	
1.64032	
1.62048	
1.6037	
1.5976	
1.58234	
1.56555	
1.5686	
1.56555	
1.55945	
1.57928	
1.60065	
1.61285	
1.6098	
1.62201	
1.62506	
1.63422	
1.63727	
1.65253	
1.65863	
1.65253	
1.6449	
1.62659	
1.66931	
1.70898	
1.72577	
1.71509	
1.69067	
1.66321	
1.64948	
1.62811	
1.59607	
1.58234	
1.56097	
1.55792	
1.55792	
1.56403	
1.57166	
1.58844	
1.60828	
1.62811	
1.62811	
1.62811	
1.62506	
1.61133	
1.61133	
1.6037	
1.61133	
1.60828	
1.61285	
1.62201	
1.67389	
1.69373	
1.69525	
1.68915	
1.6983	
1.68762	
1.67084	
1.67389	
1.65253	
1.63574	
1.62048	
1.60522	
1.58081	
1.58234	
1.5976	
1.60065	
1.60675	
1.6037	
1.61133	
1.61438	
1.62964	
1.62659	
1.63422	
1.63727	
1.63574	
1.62506	
1.64337	
1.65405	
1.6571	
1.651	
1.64032	
1.63422	
1.61591	
1.61896	
1.61285	
1.6098	
1.6037	
1.62964	
1.63574	
1.68304	
1.68304	
1.68762	
1.68915	
1.67389	
1.65558	
1.63116	
1.61438	
1.58386	
1.57013	
1.55945	
1.57318	
1.59454	
1.60828	
1.62048	
1.62964	
1.62964	
1.62811	
1.63269	
1.62964	
1.62811	
1.62964	
1.63727	
1.64032	
1.64642	
1.64337	
1.64185	
1.64337	
1.6449	
1.67694	
1.70288	
1.71814	
1.71051	
1.7395	
1.73492	
1.72119	
1.69067	
1.67236	
1.65253	
1.62659	
1.59912	
1.57013	
1.55792	
1.57928	
1.59149	
1.59149	
1.5976	
1.59302	
1.58844	
1.59607	
1.60828	
1.61896	
1.61896	
1.63269	
1.62506	
1.62659	
1.62354	
1.62964	
1.62811	
1.63269	
1.63574	
1.64185	
1.66016	
1.66931	
1.66016	
1.65863	
1.67084	
1.67847	
1.67847	
1.67542	
1.67542	
1.69373	
1.69525	
1.67694	
1.66626	
1.65253	
1.63879	
1.60828	
1.62201	
1.63116	
1.62964	
1.62506	
1.61591	
1.62506	
1.61591	
1.62354	
1.62201	
1.63116	
1.62659	
1.62201	
1.62354	
1.63879	
1.65253	
1.67694	
1.71967	
1.72729	
1.72424	
1.69983	
1.68457	
1.66016	
1.64185	
1.62048	
1.62964	
1.62506	
1.62659	
1.6098	
1.61285	
1.63574	
1.64948	
1.64185	
1.63116	
1.62201	
1.5976	
1.58997	
1.5976	
1.59912	
1.6037	
1.61591	
1.63574	
1.63727	
1.62811	
1.61591	
1.63116	
1.65405	
1.66321	
1.66473	
1.67236	
1.66626	
1.66321	
1.65863	
1.6449	
1.63269	
1.61896	
1.62659	
1.64337	
1.66626	
1.65863	
1.67389	
1.70135	
1.71509	
1.68762	
1.67389	
1.66016	
1.62506	
1.6098	
1.58386	
1.6037	
1.61133	
1.60675	
1.5976	
1.61133	
1.62048	
1.61438	
1.61133	
1.62048	
1.63116	
1.65253	
1.65405	
1.64185	
1.6449	
1.64642	
1.6571	
1.67694	
1.67847	
1.65558	
1.63727	
1.62506	
1.61438	
1.61591	
1.62201	
1.64948	
1.651	
1.64642	
1.63116	
1.63116	
1.62506	
1.62964	
1.62354	
1.62354	
1.61438	
1.60065	
1.60065	
1.60522	
1.61285	
1.62506	
1.63727	
1.6571	
1.67084	
1.68457	
1.6861	
1.67847	
1.67084	
1.65405	
1.63116	
1.62811	
1.62354	
1.63879	
1.62964	
1.63422	
1.62964	
1.64032	
1.64337	
1.64032	
1.63879	
1.63269	
1.64185	
1.63422	
1.62354	
1.61285	
1.63269	
1.62811	
1.63879	
1.63879	
1.65558	
1.6449	
1.64948	
1.66016	
1.70441	
1.72882	
1.73492	
1.72119	
1.70441	
1.68152	
1.66168	
1.65863	
1.63727	
1.62354	
1.60065	
1.58691	
1.60217	
1.59912	
1.61896	
1.62659	
1.62506	
1.62811	
1.62354	
1.61133	
1.62201	
1.62354	
1.62354	
1.62201	
1.62354	
1.62354	
1.61438	
1.62201	
1.62506	
1.63116	
1.63269	
1.63727	
1.63422	
1.63879	
1.63879	
1.64642	
1.64337	
1.63116	
1.63879	
1.63727	
1.63727	
1.65253	
1.68304	
1.69525	
1.70746	
1.71051	
1.72729	
1.71661	
1.70288	
1.68304	
1.66016	
1.6922	
1.68762	
1.70135	
1.70288	
1.68762	
1.66168	
1.63727	
1.60065	
1.59607	
1.58997	
1.57318	
1.55792	
1.5625	
1.57013	
1.58081	
1.61133	
1.63422	
1.62659	
1.62048	
1.63116	
1.64185	
1.66321	
1.71356	
1.72424	
1.71661	
1.73798	
1.73187	
1.71509	
1.68762	
1.66016	
1.63879	
1.59912	
1.58844	
1.58081	
1.57928	
1.59607	
1.64642	
1.66473	
1.69067	
1.70288	
1.68304	
1.6983	
1.68915	
1.67847	
1.64948	
1.61438	
1.58081	
1.57471	
1.54877	
1.5686	
1.58386	
1.57471	
1.57928	
1.58997	
1.64185	
1.66626	
1.67847	
1.67847	
1.67084	
1.6571	
1.64642	
1.6449	
1.64032	
1.63422	
1.61591	
1.60675	
1.61285	
1.62811	
1.62659	
1.64032	
1.67542	
1.70288	
1.69983	
1.71814	
1.71051	
1.71051	
1.69525	
1.66931	
1.66931	
1.651	
1.62659	
1.5976	
1.57776	
1.56555	
1.57623	
1.58844	
1.59607	
1.61438	
1.63269	
1.63727	
1.63116	
1.64032	
1.64185	
1.6861	
1.73645	
1.73645	
1.71814	
1.69983	
1.66321	
1.651	
1.64032	
1.64185	
1.62964	
1.60065	
1.59302	
1.57623	
1.62354	
1.63727	
1.65863	
1.66016	
1.6571	
1.6571	
1.65405	
1.65405	
1.64642	
1.64185	
1.63116	
1.63879	
1.64948	
1.65405	
1.64337	
1.65405	
1.64642	
1.63422	
1.65863	
1.67847	
1.67847	
1.66626	
1.64948	
1.67084	
1.66931	
1.6571	
1.6571	
1.66473	
1.66473	
1.63422	
1.61285	
1.61438	
1.61591	
1.61133	
1.60065	
1.61438	
1.62964	
1.63269	
1.62659	
1.64185	
1.6449	
1.64642	
1.63116	
1.63116	
1.62811	
1.63269	
1.63727	
1.6449	
1.66016	
1.66626	
1.66321	
1.66626	
1.66473	
1.64948	
1.65558	
1.651	
1.63422	
1.62354	
1.63269	
1.62659	
1.63879	
1.65405	
1.64642	
1.63727	
1.63879	
1.64642	
1.64948	
1.651	
1.66931	
1.67694	
1.67084	
1.66931	
1.66321	
1.6983	
1.72424	
1.72577	
1.71356	
1.6983	
1.69678	
1.66931	
1.66168	
1.63574	
1.62201	
1.61438	
1.58997	
1.58234	
1.58081	
1.61896	
1.63879	
1.65405	
1.6571	
1.65253	
1.63879	
1.64337	
1.6571	
1.65863	
1.64948	
1.64032	
1.63269	
1.62659	
1.63422	
1.63574	
1.64337	
1.66016	
1.67847	
1.67389	
1.70135	
1.71661	
1.75934	
1.75629	
1.73645	
1.70746	
1.66779	
1.64642	
1.62659	
1.60065	
1.60522	
1.59302	
1.59302	
1.61285	
1.63116	
1.63422	
1.64642	
1.65405	
1.64948	
1.63116	
1.63116	
1.61438	
1.62048	
1.61896	
1.62201	
1.63116	
1.66321	
1.67084	
1.6922	
1.70746	
1.71814	
1.70746	
1.69678	
1.70746	
1.6922	
1.68304	
1.651	
1.63727	
1.62354	
1.61285	
1.61896	
1.60828	
1.64642	
1.6571	
1.6571	
1.64948	
1.64642	
1.6449	
1.64337	
1.63574	
1.63879	
1.63269	
1.65558	
1.6571	
1.66321	
1.66626	
1.66016	
1.67542	
1.67542	
1.66779	
1.67236	
1.67694	
1.66321	
1.67084	
1.68762	
1.69525	
1.69678	
1.6922	
1.67389	
1.65558	
1.64032	
1.62811	
1.62201	
1.62201	
1.60828	
1.6037	
1.61285	
1.62964	
1.64032	
1.6571	
1.66473	
1.67084	
1.69525	
1.69678	
1.68457	
1.66626	
1.66779	
1.66779	
1.65863	
1.64185	
1.63269	
1.61591	
1.60675	
1.6037	
1.63116	
1.64337	
1.64185	
1.64337	
1.65558	
1.65405	
1.65405	
1.66168	
1.68152	
1.67694	
1.67847	
1.68152	
1.67694	
1.67694	
1.67236	
1.67542	
1.67694	
1.67389	
1.66779	
1.65863	
1.65405	
1.67084	
1.67236	
1.66016	
1.66168	
1.65558	
1.67389	
1.6922	
1.68457	
1.6861	
1.68762	
1.68304	
1.67389	
1.66321	
1.65863	
1.66473	
1.6571	
1.67542	
1.71356	
1.73492	
1.75476	
1.75171	
1.72729	
1.71509	
1.68152	
1.65558	
1.61591	
1.59607	
1.58844	
1.58844	
1.59302	
1.60065	
1.62659	
1.64948	
1.66626	
1.67542	
1.67236	
1.67084	
1.66931	
1.65405	
1.64337	
1.65405	
1.64337	
1.651	
1.64032	
1.64337	
1.64642	
1.66473	
1.6922	
1.70898	
1.70746	
1.69373	
1.68304	
1.65863	
1.64642	
1.63116	
1.63727	
1.63727	
1.64185	
1.63116	
1.64185	
1.65863	
1.67542	
1.69067	
1.70135	
1.69678	
1.68304	
1.68152	
1.67847	
1.67542	
1.66626	
1.6571	
1.63879	
1.64948	
1.65405	
1.66779	
1.68915	
1.6983	
1.70898	
1.70746	
1.70135	
1.70288	
1.70746	
1.75781	
1.76544	
1.75629	
1.74255	
1.73645	
1.72729	
1.70441	
1.69525	
1.69678	
1.6922	
1.68304	
1.651	
1.65405	
1.66168	
1.67236	
1.65253	
1.64185	
1.62506	
1.61896	
1.62964	
1.63269	
1.63422	
1.63727	
1.64948	
1.65405	
1.65863	
1.6571	
1.66626	
1.67236	
1.68152	
1.67542	
1.68457	
1.68304	
1.67542	
1.69373	
1.69678	
1.70135	
1.69373	
1.70898	
1.71051	
1.71967	
1.70288	
1.69678	
1.71356	
1.71356	
1.71509	
1.70288	
1.70441	
1.69373	
1.69525	
1.67389	
1.67542	
1.67847	
1.6861	
1.68304	
1.67694	
1.66931	
1.6983	
1.72272	
1.71051	
1.71356	
1.69678	
1.6861	
1.67236	
1.66626	
1.65405	
1.65558	
1.65558	
1.65405	
1.66931	
1.68762	
1.68762	
1.6983	
1.71356	
1.70746	
1.71356	
1.71356	
1.70288	
1.70441	
1.70288	
1.67542	
1.67084	
1.68152	
1.66626	
1.67236	
1.66626	
1.65863	
1.64948	
1.65405	
1.64337	
1.66016	
1.65405	
1.69678	
1.71814	
1.72424	
1.71967	
1.71814	
1.71814	
1.70593	
1.6922	
1.67389	
1.66168	
1.64337	
1.64032	
1.64642	
1.67389	
1.67236	
1.68762	
1.68762	
1.69983	
1.70593	
1.69983	
1.69983	
1.6922	
1.68304	
1.67084	
1.67084	
1.6571	
1.66321	
1.68304	
1.68457	
1.6983	
1.69678	
1.69678	
1.6983	
1.70135	
1.68152	
1.68304	
1.68762	
1.6861	
1.67389	
1.67389	
1.66931	
1.66779	
1.67084	
1.67084	
1.67694	
1.67084	
1.66168	
1.64337	
1.65558	
1.66321	
1.66626	
1.67542	
1.69678	
1.71509	
1.70593	
1.71051	
1.70898	
1.72119	
1.72272	
1.7395	
1.75629	
1.75476	
1.72577	
1.70593	
1.69678	
1.69067	
1.66931	
1.67236	
1.6922	
1.68304	
1.68915	
1.67542	
1.70288	
1.6983	
1.68762	
1.66016	
1.66473	
1.651	
1.62659	
1.61896	
1.62201	
1.63269	
1.63727	
1.64642	
1.65405	
1.65863	
1.65863	
1.67236	
1.67542	
1.68304	
1.67084	
1.66931	
1.67389	
1.67694	
1.71356	
1.70593	
1.6983	
1.68915	
1.6861	
1.68457	
1.67389	
1.67694	
1.67542	
1.67236	
1.67389	
1.66931	
1.66473	
1.66473	
1.6571	
1.6571	
1.67847	
1.69983	
1.70441	
1.71967	
1.71051	
1.70593	
1.69678	
1.6922	
1.6861	
1.66473	
1.65405	
1.63269	
1.64185	
1.63574	
1.65253	
1.64948	
1.65863	
1.66931	
1.67389	
1.67084	
1.66016	
1.6571	
1.66168	
1.66016	
1.65253	
1.6571	
1.66473	
1.68152	
1.68304	
1.69067	
1.6922	
1.69678	
1.69373	
1.68915	
1.6861	
1.6922	
1.70135	
1.69373	
1.70288	
1.69373	
1.68457	
1.67389	
1.71051	
1.71509	
1.72424	
1.72272	
1.70135	
1.69067	
1.6922	
1.68915	
1.6922	
1.67236	
1.6571	
1.62659	
1.5976	
1.62048	
1.64948	
1.66016	
1.66473	
1.66473	
1.68304	
1.6922	
1.69525	
1.67847	
1.67694	
1.66473	
1.64642	
1.63879	
1.63879	
1.63879	
1.63879	
1.64032	
1.65558	
1.67084	
1.68152	
1.68915	
1.69983	
1.71661	
1.71967	
1.72729	
1.70746	
1.69983	
1.68762	
1.6861	
1.67694	
1.66473	
1.69525	
1.72272	
1.72119	
1.71814	
1.70441	
1.68915	
1.67389	
1.65558	
1.63727	
1.62048	
1.60065	
1.60522	
1.60065	
1.65253	
1.66779	
1.6861	
1.68457	
1.68457	
1.66779	
1.66473	
1.6571	
1.65863	
1.66321	
1.66779	
1.68304	
1.68457	
1.68762	
1.68457	
1.68152	
1.67236	
1.66931	
1.67694	
1.69373	
1.68457	
1.67389	
1.67389	
1.70288	
1.72272	
1.72577	
1.72729	
1.70898	
1.68457	
1.6571	
1.64642	
1.64337	
1.64185	
1.63879	
1.62506	
1.61591	
1.61438	
1.62811	
1.63269	
1.6449	
1.66016	
1.66321	
1.66016	
1.67389	
1.67694	
1.67542	
1.69525	
1.6861	
1.68915	
1.67236	
1.67694	
1.68152	
1.68304	
1.67847	
1.67694	
1.6861	
1.68304	
1.66473	
1.66016	
1.65863	
1.65253	
1.6571	
1.66016	
1.65558	
1.63727	
1.63269	
1.63574	
1.66016	
1.67084	
1.68304	
1.67542	
1.67694	
1.67236	
1.67236	
1.6861	
1.67542	
1.66931	
1.66931	
1.67389	
1.67389	
1.67236	
1.66168	
1.66168	
1.6861	
1.77002	
1.78833	
1.78223	
1.78528	
1.75476	
1.73187	
1.6922	
1.66016	
1.65253	
1.64642	
1.62048	
1.59912	
1.6037	
1.6037	
1.62201	
1.63422	
1.64642	
1.62964	
1.62354	
1.61133	
1.62201	
1.62659	
1.651	
1.66473	
1.67236	
1.67236	
1.67084	
1.67084	
1.66779	
1.66779	
1.66168	
1.65863	
1.66931	
1.68457	
1.67847	
1.68304	
1.67542	
1.67694	
1.66931	
1.67084	
1.68915	
1.70746	
1.71814	
1.70746	
1.71356	
1.70746	
1.71051	
1.68915	
1.67542	
1.65863	
1.64642	
1.64337	
1.64032	
1.64948	
1.6571	
1.66321	
1.66626	
1.66779	
1.66321	
1.66016	
1.65863	
1.65558	
1.65253	
1.651	
1.65558	
1.65558	
1.67389	
1.67694	
1.67542	
1.67084	
1.66931	
1.66321	
1.67084	
1.67084	
1.67084	
1.66779	
1.67236	
1.6861	
1.68457	
1.69067	
1.67694	
1.67236	
1.66321	
1.66931	
1.66779	
1.66931	
1.66321	
1.66931	
1.66321	
1.66321	
1.68152	
1.67236	
1.67694	
1.68152	
1.67389	
1.66321	
1.67236	
1.66931	
1.67236	
1.68762	
1.70135	
1.70288	
1.69373	
1.6861	
1.67236	
1.66321	
1.65558	
1.64642	
1.63727	
1.63879	
1.63727	
1.64948	
1.64642	
1.70288	
1.72119	
1.73492	
1.74866	
1.73645	
1.72119	
1.69678	
1.68457	
1.65405	
1.64948	
1.64948	
1.63727	
1.63269	
1.62964	
1.66016	
1.66473	
1.67694	
1.67236	
1.66779	
1.66168	
1.66626	
1.65863	
1.67084	
1.67694	
1.67389	
1.66321	
1.66168	
1.66168	
1.66016	
1.66931	
1.67236	
1.6983	
1.6983	
1.70288	
1.72424	
1.75781	
1.75934	
1.74561	
1.72729	
1.70135	
1.67236	
1.651	
1.64948	
1.64337	
1.65405	
1.64185	
1.63422	
1.63116	
1.64337	
1.65253	
1.67084	
1.68304	
1.67084	
1.66931	
1.66168	
1.66168	
1.64948	
1.66168	
1.66168	
1.66931	
1.66473	
1.67084	
1.6861	
1.69067	
1.69373	
1.68915	
1.70135	
1.6983	
1.6983	
1.69373	
1.70441	
1.69983	
1.69373	
1.70898	
1.70898	
1.70746	
1.70898	
1.70288	
1.68457	
1.68457	
1.66473	
1.65558	
1.64948	
1.67084	
1.67236	
1.70288	
1.69983	
1.69373	
1.6983	
1.69067	
1.67847	
1.66168	
1.65405	
1.651	
1.6449	
1.62964	
1.63269	
1.63727	
1.6571	
1.66626	
1.67847	
1.6922	
1.68152	
1.67847	
1.68915	
1.70288	
1.69525	
1.69678	
1.69525	
1.71509	
1.75476	
1.76697	
1.75781	
1.73645	
1.71814	
1.68304	
1.66016	
1.62811	
1.62659	
1.62964	
1.62659	
1.62201	
1.63269	
1.63574	
1.65558	
1.6571	
1.68304	
1.6861	
1.68457	
1.67694	
1.67389	
1.67542	
1.66473	
1.69067	
1.68304	
1.68457	
1.68304	
1.68304	
1.69067	
1.68152	
1.67542	
1.66626	
1.66473	
1.6571	
1.65253	
1.64948	
1.66779	
1.68304	
1.6983	
1.71509	
1.74713	
1.76849	
1.76086	
1.75018	
1.75171	
1.74866	
1.7334	
1.72272	
1.70593	
1.6861	
1.6449	
1.62506	
1.61896	
1.62201	
1.62811	
1.63116	
1.63727	
1.62964	
1.651	
1.65863	
1.66931	
1.6983	
1.70441	
1.6922	
1.69983	
1.68762	
1.6861	
1.68152	
1.66779	
1.6571	
1.64642	
1.65863	
1.65405	
1.66779	
1.65863	
1.66473	
1.66016	
1.67084	
1.68304	
1.67389	
1.67084	
1.67236	
1.67084	
1.66931	
1.67389	
1.66626	
1.66931	
1.66321	
1.66779	
1.66168	
1.67084	
1.67542	
1.67542	
1.67542	
1.67542	
1.67847	
1.68152	
1.68762	
1.68915	
1.69678	
1.6983	
1.6983	
1.69373	
1.69067	
1.69678	
1.70288	
1.72577	
1.77765	
1.79749	
1.78223	
1.76086	
1.78528	
1.77002	
1.75171	
1.73492	
1.70135	
1.67694	
1.651	
1.6098	
1.6098	
1.60522	
1.60828	
1.60217	
1.62354	
1.62659	
1.64337	
1.64337	
1.65863	
1.67236	
1.66321	
1.65863	
1.64948	
1.64337	
1.65253	
1.66168	
1.65253	
1.66016	
1.67084	
1.69373	
1.70898	
1.72577	
1.72272	
1.72119	
1.71356	
1.70288	
1.69983	
1.68152	
1.66931	
1.65253	
1.65405	
1.64642	
1.65253	
1.64948	
1.64948	
1.65405	
1.66473	
1.68457	
1.67847	
1.6861	
1.67542	
1.66779	
1.66626	
1.67084	
1.65863	
1.67236	
1.67542	
1.68457	
1.68762	
1.68457	
1.68304	
1.67389	
1.66931	
1.66321	
1.67236	
1.66779	
1.68152	
1.67847	
1.6861	
1.69678	
1.70288	
1.6983	
1.6922	
1.70135	
1.73035	
1.74866	
1.73645	
1.71661	
1.70288	
1.70898	
1.70746	
1.6983	
1.6922	
1.6922	
1.67236	
1.65863	
1.651	
1.63727	
1.63269	
1.62811	
1.62201	
1.62659	
1.63422	
1.63269	
1.62811	
1.64185	
1.6571	
1.68304	
1.69983	
1.71814	
1.71356	
1.70898	
1.70441	
1.70898	
1.69678	
1.68457	
1.66779	
1.66473	
1.66016	
1.66321	
1.66931	
1.66931	
1.66779	
1.70441	
1.72424	
1.72272	
1.72119	
1.70288	
1.68762	
1.67389	
1.66168	
1.651	
1.63574	
1.62201	
1.62506	
1.63269	
1.63116	
1.63116	
1.63879	
1.65405	
1.6571	
1.66779	
1.66779	
1.66626	
1.67084	
1.67542	
1.67542	
1.67236	
1.66931	
1.66626	
1.67084	
1.67542	
1.69067	
1.70288	
1.70593	
1.69678	
1.69067	
1.67542	
1.67389	
1.66626	
1.65558	
1.66779	
1.67084	
1.68762	
1.6983	
1.72272	
1.74713	
1.79138	
1.7868	
1.76697	
1.74103	
1.70593	
1.67694	
1.64185	
1.62354	
1.58691	
1.57318	
1.57166	
1.57318	
1.59454	
1.61591	
1.63116	
1.63879	
1.67084	
1.68915	
1.69678	
1.68915	
1.67847	
1.68152	
1.68915	
1.6861	
1.67542	
1.66626	
1.66016	
1.63879	
1.63574	
1.64032	
1.63879	
1.63422	
1.62964	
1.6449	
1.66931	
1.69678	
1.69525	
1.6861	
1.67389	
1.67847	
1.66931	
1.66016	
1.6571	
1.6449	
1.651	
1.651	
1.64185	
1.64337	
1.66016	
1.6571	
1.66779	
1.68152	
1.67236	
1.67389	
1.67236	
1.68304	
1.67694	
1.68457	
1.67084	
1.67236	
1.66626	
1.66779	
1.66473	
1.66321	
1.651	
1.65863	
1.66168	
1.66779	
1.67084	
1.67084	
1.70593	
1.72119	
1.73035	
1.7334	
1.76086	
1.75476	
1.75323	
1.75171	
1.72729	
1.70898	
1.66779	
1.63574	
1.60522	
1.59149	
1.58997	
1.58234	
1.59149	
1.60065	
1.62354	
1.66168	
1.67389	
1.68457	
1.68762	
1.69067	
1.70441	
1.69983	
1.68915	
1.67084	
1.66016	
1.63269	
1.62659	
1.62506	
1.63116	
1.63727	
1.63879	
1.65253	
1.6571	
1.68457	
1.68762	
1.68762	
1.67236	
1.68152	
1.68152	
1.68152	
1.67694	
1.67542	
1.67694	
1.67847	
1.6861	
1.67694	
1.67694	
1.67542	
1.67236	
1.66626	
1.66626	
1.66168	
1.66168	
1.6571	
1.66626	
1.67084	
1.66626	
1.66321	
1.66473	
1.67389	
1.67847	
1.67542	
1.67084	
1.68762	
1.6922	
1.69067	
1.68457	
1.68152	
1.67694	
1.66016	
1.66168	
1.66016	
1.65863	
1.6449	
1.6571	
1.67236	
1.69678	
1.70135	
1.71509	
1.70898	
1.69373	
1.73035	
1.77002	
1.77307	
1.75781	
1.75476	
1.73492	
1.72272	
1.6983	
1.70441	
1.67847	
1.65558	
1.62201	
1.60065	
1.65253	
1.66931	
1.68152	
1.67847	
1.6922	
1.6983	
1.68457	
1.66473	
1.67084	
1.65253	
1.63574	
1.62506	
1.62506	
1.63727	
1.63879	
1.64948	
1.66168	
1.66931	
1.67389	
1.68304	
1.68152	
1.68457	
1.67542	
1.67542	
1.66931	
1.65863	
1.66931	
1.66779	
1.66779	
1.65863	
1.6571	
1.64642	
1.65863	
1.65405	
1.6571	
1.66779	
1.67236	
1.6861	
1.68152	
1.6861	
1.67694	
1.68152	
1.67542	
1.67542	
1.66626	
1.67084	
1.66016	
1.67084	
1.66168	
1.65863	
1.67084	
1.66473	
1.66931	
1.66931	
1.69067	
1.69373	
1.70746	
1.70441	
1.69983	
1.68762	
1.6861	
1.69525	
1.70288	
1.71814	
1.73492	
1.75323	
1.74561	
1.74103	
1.71661	
1.6922	
1.65863	
1.63116	
1.61285	
1.60675	
1.59302	
1.57928	
1.60522	
1.63422	
1.65405	
1.65558	
1.68762	
1.70593	
1.70593	
1.68762	
1.67694	
1.67694	
1.67236	
1.67694	
1.67236	
1.67694	
1.66931	
1.68304	
1.66626	
1.70593	
1.73035	
1.73645	
1.72729	
1.72577	
1.71509	
1.70441	
1.68304	
1.66321	
1.64642	
1.62506	
1.61591	
1.61591	
1.62659	
1.63422	
1.65558	
1.66931	
1.68915	
1.69373	
1.6922	
1.6922	
1.69678	
1.6922	
1.68915	
1.6861	
1.66779	
1.66321	
1.6449	
1.65863	
1.65253	
1.64185	
1.6449	
1.64642	
1.66626	
1.67542	
1.67542	
1.67236	
1.68152	
1.68457	
1.71509	
1.71661	
1.72424	
1.71814	
1.70135	
1.69678	
1.69373	
1.69678	
1.67389	
1.66931	
1.65558	
1.65253	
1.66473	
1.67389	
1.66473	
1.67084	
1.68762	
1.6922	
1.70441	
1.70288	
1.71661	
1.70898	
1.69983	
1.69067	
1.6922	
1.67694	
1.66931	
1.65863	
1.65863	
1.65863	
1.64185	
1.64032	
1.63727	
1.66016	
1.67542	
1.70135	
1.69678	
1.6983	
1.68762	
1.68915	
1.67084	
1.67389	
1.66931	
1.6571	
1.70441	
1.71509	
1.71814	
1.70441	
1.69983	
1.67847	
1.67542	
1.66473	
1.65405	
1.64337	
1.63116	
1.63727	
1.64337	
1.64948	
1.6571	
1.67847	
1.69525	
1.69678	
1.68304	
1.68304	
1.68152	
1.67389	
1.66168	
1.66168	
1.66779	
1.66626	
1.67694	
1.67847	
1.69373	
1.69373	
1.71661	
1.70898	
1.70746	
1.70593	
1.71814	
1.70441	
1.68762	
1.68304	
1.66779	
1.65405	
1.651	
1.65253	
1.63574	
1.64032	
1.64948	
1.66626	
1.6861	
1.72272	
1.73798	
1.75781	
1.76239	
1.74103	
1.74255	
1.74561	
1.7395	
1.71814	
1.70746	
1.67236	
1.65253	
1.62201	
1.60675	
1.60828	
1.61896	
1.62048	
1.60065	
1.61896	
1.63574	
1.64948	
1.6571	
1.66779	
1.67847	
1.69067	
1.68457	
1.69525	
1.68915	
1.68457	
1.68152	
1.67236	
1.67236	
1.66931	
1.67389	
1.67236	
1.67542	
1.6922	
1.70898	
1.71661	
1.70898	
1.6983	
1.69373	
1.70135	
1.70746	
1.71051	
1.6983	
1.68915	
1.66321	
1.66321	
1.6449	
1.6449	
1.63879	
1.63879	
1.65253	
1.68915	
1.71356	
1.69983	
1.68915	
1.69067	
1.71509	
1.70746	
1.70288	
1.67847	
1.66931	
1.66168	
1.64642	
1.64337	
1.63574	
1.63879	
1.63422	
1.65558	
1.66626	
1.67236	
1.67084	
1.67389	
1.68304	
1.67694	
1.66931	
1.67847	
1.68915	
1.70288	
1.70288	
1.67847	
1.66168	
1.65863	
1.66168	
1.66168	
1.66931	
1.66626	
1.67236	
1.67389	
1.68457	
1.6922	
1.69373	
1.68304	
1.6571	
1.65558	
1.64032	
1.63879	
1.63727	
1.63879	
1.63727	
1.64337	
1.651	
1.65405	
1.66321	
1.66473	
1.66931	
1.69525	
1.69525	
1.70135	
1.70898	
1.70898	
1.70746	
1.70746	
1.71356	
1.70898	
1.69525	
1.67694	
1.66168	
1.66473	
1.6571	
1.6449	
1.63422	
1.63574	
1.63727	
1.64642	
1.64948	
1.66016	
1.67236	
1.67236	
1.67542	
1.67084	
1.67542	
1.67542	
1.68457	
1.66626	
1.66626	
1.65558	
1.64337	
1.67389	
1.69373	
1.69067	
1.68304	
1.67389	
1.65405	
1.63879	
1.64185	
1.65558	
1.66016	
1.66626	
1.66016	
1.66473	
1.66321	
1.66016	
1.6571	
1.65558	
1.64337	
1.62811	
1.63727	
1.63269	
1.62964	
1.63574	
1.651	
1.66473	
1.66626	
1.70898	
1.73187	
1.73645	
1.71356	
1.70746	
1.68915	
1.67694	
1.65863	
1.651	
1.62964	
1.62354	
1.60828	
1.6098	
1.62354	
1.62964	
1.6449	
1.65558	
1.66779	
1.66779	
1.67084	
1.66779	
1.66626	
1.66168	
1.67236	
1.67236	
1.66626	
1.66321	
1.66168	
1.66016	
1.64948	
1.64642	
1.65558	
1.66473	
1.68152	
1.69678	
1.72272	
1.73187	
1.73492	
1.72577	
1.70593	
1.69067	
1.67236	
1.64337	
1.63422	
1.61285	
1.59912	
1.59302	
1.59912	
1.59302	
1.6098	
1.63879	
1.64948	
1.6571	
1.65558	
1.65405	
1.65558	
1.72424	
1.75629	
1.75781	
1.73035	
1.71661	
1.6922	
1.66321	
1.63574	
1.61438	
1.61285	
1.61591	
1.59912	
1.58997	
1.6098	
1.62506	
1.651	
1.66626	
1.66779	
1.65558	
1.6449	
1.66016	
1.68304	
1.6983	
1.69678	
1.70135	
1.68915	
1.69525	
1.67694	
1.67236	
1.6571	
1.63879	
1.62048	
1.60675	
1.61591	
1.62811	
1.62964	
1.63269	
1.64337	
1.64185	
1.64185	
1.63269	
1.64032	
1.6571	
1.69067	
1.6922	
1.68915	
1.68304	
1.67542	
1.67542	
1.67389	
1.67084	
1.65558	
1.64185	
1.62964	
1.64337	
1.64032	
1.64642	
1.65405	
1.68152	
1.70746	
1.70746	
1.70898	
1.6922	
1.67236	
1.66016	
1.63727	
1.62354	
1.62506	
1.63879	
1.63116	
1.61896	
1.61438	
1.651	
1.65863	
1.68304	
1.6983	
1.70288	
1.6983	
1.70441	
1.7334	
1.73492	
1.71661	
1.69678	
1.67847	
1.65863	
1.6449	
1.62659	
1.62201	
1.62506	
1.62201	
1.62201	
1.651	
1.66779	
1.68457	
1.6861	
1.6922	
1.70288	
1.68762	
1.69067	
1.6983	
1.69983	
1.68152	
1.67236	
1.66473	
1.66931	
1.66321	
1.66626	
1.66779	
1.6571	
1.66168	
1.66626	
1.68152	
1.67694	
1.69067	
1.69067	
1.68762	
1.69373	
1.72424	
1.72424	
1.73187	
1.72272	
1.71356	
1.70746	
1.68762	
1.67694	
1.66016	
1.65558	
1.64642	
1.64642	
1.65253	
1.66168	
1.66931	
1.68457	
1.69067	
1.68152	
1.70593	
1.72424	
1.73035	
1.73187	
1.72882	
1.70746	
1.72119	
1.71509	
1.71814	
1.71814	
1.71814	
1.70288	
1.68762	
1.70898	
1.70898	
1.71509	
1.70288	
1.69983	
1.6922	
1.69678	
1.69067	
1.68762	
1.6861	
1.6861	
1.70288	
1.70593	
1.70441	
1.69983	
1.69678	
1.68762	
1.67694	
1.67236	
1.6861	
1.6922	
1.70746	
1.70135	
1.70746	
1.71356	
1.70288	
1.69678	
1.69983	
1.69678	
1.68457	
1.68762	
1.69067	
1.69525	
1.70135	
1.72119	
1.72577	
1.71814	
1.71967	
1.71509	
1.71509	
1.70593	
1.6983	
1.68457	
1.69067	
1.68762	
1.69067	
1.6861	
1.70288	
1.70746	
1.70135	
1.72272	
1.73798	
1.74103	
1.73645	
1.73492	
1.71967	
1.72272	
1.70593	
1.69678	
1.68915	
1.67694	
1.68457	
1.6861	
1.6922	
1.68915	
1.72119	
1.72577	
1.73798	
1.7395	
1.73645	
1.7334	
1.74103	
1.73035	
1.72424	
1.72882	
1.71356	
1.71967	
1.72119	
1.74103	
1.77155	
1.79291	
1.78223	
1.76849	
1.75629	
1.74713	
1.72729	
1.6983	
1.67694	
1.65253	
1.651	
1.65405	
1.66473	
1.67847	
1.69678	
1.70898	
1.71814	
1.73035	
1.74561	
1.7334	
1.72577	
1.73187	
1.73645	
1.75476	
1.75781	
1.76239	
1.75171	
1.75781	
1.75323	
1.73035	
1.72119	
1.71814	
1.71814	
1.70593	
1.71356	
1.71051	
1.72882	
1.73035	
1.75018	
1.75171	
1.75476	
1.77307	
1.80817	
1.80969	
1.80359	
1.80206	
1.77917	
1.76086	
1.73187	
1.72272	
1.70441	
1.69373	
1.66779	
1.66626	
1.67847	
1.69983	
1.72424	
1.74866	
1.76392	
1.76392	
1.75781	
1.75476	
1.75323	
1.73492	
1.73187	
1.72119	
1.71509	
1.70288	
1.71356	
1.71509	
1.72119	
1.73035	
1.73645	
1.74103	
1.7334	
1.7395	
1.73187	
1.74255	
1.74103	
1.74103	
1.73492	
1.73645	
1.74561	
1.75018	
1.76697	
1.79291	
1.79596	
1.80359	
1.80206	
1.79443	
1.78833	
1.77002	
1.76086	
1.73645	
1.72577	
1.71356	
1.6983	
1.69678	
1.69373	
1.70135	
1.72272	
1.75018	
1.73492	
1.7395	
1.74866	
1.75323	
1.75934	
1.75476	
1.75629	
1.78833	
1.79901	
1.78833	
1.77917	
1.75934	
1.74713	
1.72882	
1.72424	
1.71356	
1.71967	
1.71356	
1.70135	
1.70135	
1.71814	
1.74713	
1.75629	
1.76392	
1.75934	
1.76392	
1.75476	
1.76544	
1.7807	
1.77917	
1.77155	
1.7746	
1.7746	
1.7807	
1.7746	
1.75934	
1.75934	
1.74255	
1.73798	
1.71356	
1.69983	
1.69525	
1.69525	
1.69678	
1.69525	
1.71661	
1.71814	
1.72729	
1.73798	
1.75018	
1.74103	
1.75018	
1.75171	
1.76086	
1.76392	
1.75629	
1.75629	
1.75171	
1.75018	
1.74103	
1.74561	
1.73798	
1.74561	
1.74866	
1.77155	
1.79749	
1.81427	
1.8219	
1.81885	
1.82343	
1.82037	
1.83258	
1.82495	
1.80511	
1.77307	
1.74866	
1.71814	
1.70593	
1.70746	
1.68762	
1.70288	
1.71967	
1.73492	
1.74255	
1.75171	
1.74866	
1.75476	
1.76239	
1.76086	
1.74866	
1.74255	
1.72577	
1.73035	
1.72729	
1.72882	
1.73187	
1.73645	
1.74713	
1.75018	
1.75781	
1.75629	
1.75934	
1.76239	
1.76849	
1.76697	
1.76849	
1.77155	
1.76849	
1.76849	
1.78528	
1.7868	
1.78528	
1.79443	
1.78833	
1.7868	
1.77765	
1.77155	
1.75934	
1.75476	
1.7395	
1.74103	
1.75018	
1.74866	
1.74561	
1.73492	
1.73798	
1.75323	
1.76086	
1.75476	
1.75018	
1.75171	
1.76086	
1.76849	
1.76697	
1.76697	
1.78528	
1.79443	
1.80511	
1.79901	
1.7746	
1.78223	
1.78223	
1.76849	
1.78223	
1.80206	
1.79749	
1.79749	
1.78986	
1.7868	
1.78223	
1.75781	
1.74255	
1.72424	
1.73645	
1.73187	
1.72424	
1.72882	
1.72729	
1.73492	
1.75934	
1.78375	
1.78375	
1.78223	
1.76697	
1.76086	
1.74561	
1.75171	
1.75018	
1.74561	
1.73645	
1.73035	
1.72882	
1.70898	
1.70746	
1.70441	
1.72577	
1.73492	
1.74255	
1.74866	
1.75171	
1.75476	
1.76544	
1.76697	
1.77002	
1.76544	
1.76086	
1.77155	
1.76849	
1.77155	
1.76544	
1.76849	
1.76392	
1.76697	
1.75629	
1.75323	
1.75476	
1.76239	
1.76697	
1.76086	
1.76239	
1.76697	
1.78986	
1.78223	
1.7868	
1.78833	
1.78986	
1.78375	
1.76697	
1.75476	
1.75018	
1.74103	
1.7334	
1.73187	
1.73645	
1.75171	
1.74255	
1.74866	
1.75323	
1.76239	
1.76086	
1.76544	
1.77155	
1.76849	
1.76086	
1.75629	
1.77917	
1.78528	
1.82495	
1.82953	
1.82648	
1.82037	
1.80206	
1.78833	
1.7868	
1.78986	
1.80969	
1.81732	
1.79443	
1.78375	
1.77917	
1.7868	
1.76544	
1.75476	
1.74866	
1.73798	
1.72729	
1.70441	
1.70593	
1.70898	
1.72119	
1.73035	
1.75018	
1.7395	
1.75476	
1.75171	
1.75629	
1.75934	
1.76697	
1.76697	
1.77307	
1.77307	
1.76086	
1.75934	
1.75018	
1.75171	
1.75171	
1.75629	
1.74866	
1.75171	
1.75171	
1.76392	
1.77002	
1.76849	
1.77155	
1.76392	
1.77002	
1.76544	
1.77307	
1.77002	
1.76392	
1.76849	
1.77002	
1.77155	
1.77917	
1.77307	
1.76849	
1.76849	
1.76544	
1.77155	
1.76392	
1.76849	
1.77002	
1.79596	
1.79291	
1.78986	
1.78375	
1.77155	
1.76697	
1.76392	
1.78986	
1.82648	
1.87531	
1.89819	
1.90735	
1.90125	
1.8692	
1.83411	
1.79291	
1.75323	
1.71661	
1.67084	
1.64032	
1.63879	
1.651	
1.66779	
1.69067	
1.73035	
1.74103	
1.75934	
1.76697	
1.77765	
1.77917	
1.77307	
1.77765	
1.76697	
1.76697	
1.76392	
1.7868	
1.78833	
1.82343	
1.84021	
1.83716	
1.82953	
1.82495	
1.8158	
1.79443	
1.78223	
1.76392	
1.74713	
1.71967	
1.72119	
1.72272	
1.73187	
1.74713	
1.75934	
1.76697	
1.76086	
1.76544	
1.76086	
1.76239	
1.75323	
1.75781	
1.76239	
1.77917	
1.78528	
1.79138	
1.78833	
1.78223	
1.76697	
1.76849	
1.77917	
1.77155	
1.76697	
1.76392	
1.77002	
1.78375	
1.79138	
1.79138	
1.79443	
1.81274	
1.86462	
1.88751	
1.90887	
1.9104	
1.88599	
1.85242	
1.81427	
1.7868	
1.74713	
1.71661	
1.68915	
1.67236	
1.67236	
1.67084	
1.68304	
1.70746	
1.73798	
1.74561	
1.74866	
1.76392	
1.76697	
1.75781	
1.76392	
1.76086	
1.76086	
1.76392	
1.76544	
1.76849	
1.77307	
1.78223	
1.78986	
1.80054	
1.80359	
1.80511	
1.84479	
1.87378	
1.8631	
1.84326	
1.81427	
1.78986	
1.76544	
1.7334	
1.70593	
1.6861	
1.70135	
1.69525	
1.69373	
1.6983	
1.72882	
1.74713	
1.75476	
1.77155	
1.76697	
1.75629	
1.74255	
1.74255	
1.76086	
1.76392	
1.76697	
1.77155	
1.76849	
1.77765	
1.77307	
1.77307	
1.77002	
1.77765	
1.79291	
1.80054	
1.8158	
1.8219	
1.85699	
1.85089	
1.84631	
1.82953	
1.81427	
1.80511	
1.7746	
1.75476	
1.7334	
1.70746	
1.6861	
1.67084	
1.66168	
1.6861	
1.70593	
1.72119	
1.72424	
1.73492	
1.74255	
1.75171	
1.76392	
1.75781	
1.75476	
1.75476	
1.76544	
1.75934	
1.76392	
1.75781	
1.75781	
1.75629	
1.76239	
1.76544	
1.76392	
1.76392	
1.76086	
1.75781	
1.76392	
1.77155	
1.79291	
1.79596	
1.79138	
1.7868	
1.77917	
1.77002	
1.7746	
1.76697	
1.76697	
1.75476	
1.74713	
1.74255	
1.74713	
1.75323	
1.76697	
1.77155	
1.7807	
1.77002	
1.76086	
1.78528	
1.79291	
1.79901	
1.78833	
1.7868	
1.76086	
1.75018	
1.73798	
1.72729	
1.71509	
1.70898	
1.71051	
1.71051	
1.74103	
1.75323	
1.79138	
1.84326	
1.86615	
1.86005	
1.87683	
1.86768	
1.84479	
1.80206	
1.78223	
1.75171	
1.71509	
1.68457	
1.66321	
1.67084	
1.68304	
1.67389	
1.67694	
1.70593	
1.71967	
1.7334	
1.74255	
1.75323	
1.75323	
1.74103	
1.75018	
1.75629	
1.75934	
1.75171	
1.75171	
1.75018	
1.75629	
1.75018	
1.75018	
1.75476	
1.75323	
1.76544	
1.77307	
1.7807	
1.77765	
1.77002	
1.76544	
1.76849	
1.75171	
1.75018	
1.73645	
1.73798	
1.74561	
1.76239	
1.79443	
1.79596	
1.80359	
1.79596	
1.7868	
1.7807	
1.77002	
1.75171	
1.73492	
1.71661	
1.70593	
1.70288	
1.72119	
1.72729	
1.72272	
1.74255	
1.77155	
1.77917	
1.75934	
1.77307	
1.77917	
1.77307	
1.76544	
1.78375	
1.78223	
1.78833	
1.78833	
1.79901	
1.80511	
1.7868	
1.77002	
1.75476	
1.76697	
1.77002	
1.78833	
1.7807	
1.76849	
1.75781	
1.74255	
1.73798	
1.72729	
1.71967	
1.70441	
1.70441	
1.70288	
1.70746	
1.71356	
1.72882	
1.73187	
1.74103	
1.75171	
1.74255	
1.74255	
1.74713	
1.74713	
1.74255	
1.76239	
1.76697	
1.76392	
1.76086	
1.77002	
1.77917	
1.77307	
1.76239	
1.75323	
1.74866	
1.75018	
1.73492	
1.73492	
1.74866	
1.75629	
1.76697	
1.76086	
1.76849	
1.76392	
1.75323	
1.75629	
1.75323	
1.75781	
1.75934	
1.75629	
1.75171	
1.75629	
1.79291	
1.83105	
1.85699	
1.86005	
1.85394	
1.83105	
1.80054	
1.75629	
1.73035	
1.72119	
1.71967	
1.69525	
1.6861	
1.68915	
1.6983	
1.70441	
1.72272	
1.74713	
1.73187	
1.72882	
1.7395	
1.74713	
1.7746	
1.83411	
1.83563	
1.83716	
1.8219	
1.80206	
1.7807	
1.75323	
1.72424	
1.69373	
1.68762	
1.68152	
1.67236	
1.67542	
1.70288	
1.72729	
1.7395	
1.73645	
1.74713	
1.73798	
1.73187	
1.73645	
1.73798	
1.74561	
1.73492	
1.73645	
1.72577	
1.7334	
1.74103	
1.74866	
1.74713	
1.74255	
1.74713	
1.74561	
1.75018	
1.7395	
1.74713	
1.75018	
1.76239	
1.75934	
1.76392	
1.76086	
1.77917	
1.78223	
1.77765	
1.76392	
1.75323	
1.74561	
1.7334	
1.7334	
1.72119	
1.72882	
1.71356	
1.71509	
1.71661	
1.72882	
1.74255	
1.75629	
1.77307	
1.78375	
1.78223	
1.79138	
1.8158	
1.82495	
1.82343	
1.80206	
1.78528	
1.77002	
1.77917	
1.7746	
1.75476	
1.73187	
1.71356	
1.70135	
1.6922	
1.69067	
1.6922	
1.69067	
1.68457	
1.68457	
1.68762	
1.69525	
1.71051	
1.72729	
1.73187	
1.73187	
1.7334	
1.73187	
1.73798	
1.74561	
1.74561	
1.75476	
1.75781	
1.75323	
1.75629	
1.75476	
1.74255	
1.7395	
1.73798	
1.74255	
1.7395	
1.75323	
1.74713	
1.7395	
1.73798	
1.74561	
1.74866	
1.74561	
1.74103	
1.76849	
1.79138	
1.80969	
1.79901	
1.78223	
1.7746	
1.76239	
1.74713	
1.72577	
1.72119	
1.70746	
1.72577	
1.73187	
1.7334	
1.74255	
1.73035	
1.74561	
1.74561	
1.74103	
1.72729	
1.72729	
1.71814	
1.70288	
1.70441	
1.71661	
1.75018	
1.75781	
1.76392	
1.76086	
1.77002	
1.7807	
1.78528	
1.77155	
1.7746	
1.75171	
1.73798	
1.72424	
1.71661	
1.7395	
1.73798	
1.7334	
1.73187	
1.74713	
1.74866	
1.75476	
1.73798	
1.73492	
1.72272	
1.70746	
1.69373	
1.68457	
1.68304	
1.6861	
1.70135	
1.70135	
1.72119	
1.72729	
1.73035	
1.72729	
1.72882	
1.72577	
1.73798	
1.74255	
1.75323	
1.75323	
1.74103	
1.73645	
1.72882	
1.72729	
1.73492	
1.73645	
1.7334	
1.73492	
1.7395	
1.73645	
1.73492	
1.72729	
1.73645	
1.7334	
1.73645	
1.72729	
1.72424	
1.74255	
1.75629	
1.75781	
1.77307	
1.77307	
1.76392	
1.76086	
1.74866	
1.74255	
1.73035	
1.73492	
1.72729	
1.72272	
1.72882	
1.72272	
1.72119	
1.72272	
1.72272	
1.71967	
1.72424	
1.75781	
1.76086	
1.75629	
1.74255	
1.73798	
1.74255	
1.78528	
1.80969	
1.80359	
1.79749	
1.80054	
1.78375	
1.7807	
1.76086	
1.74561	
1.71661	
1.71051	
1.69678	
1.67389	
1.66931	
1.66779	
1.66626	
1.70441	
1.72119	
1.71509	
1.6983	
1.70593	
1.74561	
1.75018	
1.75934	
1.75781	
1.75171	
1.7395	
1.72882	
1.72119	
1.71814	
1.70898	
1.70593	
1.69525	
1.69678	
1.70288	
1.70593	
1.73035	
1.74103	
1.75171	
1.75171	
1.75018	
1.75018	
1.75476	
1.75323	
1.75018	
1.75171	
1.75018	
1.74561	
1.74713	
1.75018	
1.73645	
1.7395	
1.74713	
1.74103	
1.73645	
1.73798	
1.73492	
1.7334	
1.73645	
1.72424	
1.72424	
1.75934	
1.77307	
1.75171	
1.74103	
1.75018	
1.74561	
1.73492	
1.71814	
1.71509	
1.69983	
1.69678	
1.69373	
1.69678	
1.69525	
1.70288	
1.71509	
1.74561	
1.74103	
1.74255	
1.73645	
1.73492	
1.74713	
1.73492	
1.73492	
1.75781	
1.77155	
1.77917	
1.78375	
1.78223	
1.78223	
1.76544	
1.75629	
1.73492	
1.71356	
1.6922	
1.66168	
1.64185	
1.6571	
1.67084	
1.67847	
1.69373	
1.69678	
1.6983	
1.70746	
1.72577	
1.74255	
1.76086	
1.77307	
1.76697	
1.76392	
1.75476	
1.74713	
1.74103	
1.74103	
1.72882	
1.72424	
1.73187	
1.72119	
1.70593	
1.70288	
1.71814	
1.7395	
1.7746	
1.78528	
1.77765	
1.75934	
1.75781	
1.74713	
1.73492	
1.72424	
1.70288	
1.69525	
1.69983	
1.69678	
1.70135	
1.71967	
1.72272	
1.73035	
1.72882	
1.72577	
1.72882	
1.72882	
1.72577	
1.72729	
1.72577	
1.71509	
1.70593	
1.70441	
1.71051	
1.71356	
1.71814	
1.74103	
1.76392	
1.76849	
1.76544	
1.75934	
1.79749	
1.83563	
1.82495	
1.81427	
1.78375	
1.75629	
1.71509	
1.68304	
1.66626	
1.66626	
1.64032	
1.60522	
1.62506	
1.66321	
1.68915	
1.70135	
1.72577	
1.74255	
1.74561	
1.73492	
1.74103	
1.73798	
1.73645	
1.72729	
1.72119	
1.72272	
1.72729	
1.74103	
1.74255	
1.75629	
1.75934	
1.76849	
1.78528	
1.79901	
1.78223	
1.76239	
1.75781	
1.75476	
1.75476	
1.7334	
1.71967	
1.70441	
1.70593	
1.70441	
1.70593	
1.71661	
1.72119	
1.72119	
1.71967	
1.72119	
1.71967	
1.71814	
1.71356	
1.71356	
1.72577	
1.74561	
1.7395	
1.74713	
1.74866	
1.74713	
1.7395	
1.73187	
1.72882	
1.71661	
1.71509	
1.71356	
1.71661	
1.70898	
1.71814	
1.73035	
1.75629	
1.76392	
1.76239	
1.75934	
1.74866	
1.74103	
1.73492	
1.73187	
1.72424	
1.71509	
1.69678	
1.68915	
1.69067	
1.71661	
1.71661	
1.74561	
1.78986	
1.79443	
1.79901	
1.7807	
1.76544	
1.75171	
1.74103	
1.71967	
1.70746	
1.68304	
1.67389	
1.6922	
1.70746	
1.72272	
1.73187	
1.73035	
1.7334	
1.73645	
1.72882	
1.70746	
1.70746	
1.71356	
1.71051	
1.72729	
1.72729	
1.72577	
1.71661	
1.71509	
1.72882	
1.73035	
1.73035	
1.72882	
1.72272	
1.71051	
1.72272	
1.72119	
1.72577	
1.72272	
1.71814	
1.72424	
1.72272	
1.72272	
1.71051	
1.72729	
1.72729	
1.7395	
1.72882	
1.71509	
1.71967	
1.74713	
1.76697	
1.76697	
1.74713	
1.72119	
1.69983	
1.67847	
1.67694	
1.68304	
1.68304	
1.67694	
1.68152	
1.69678	
1.70135	
1.71509	
1.71509	
1.72424	
1.72424	
1.72119	
1.72119	
1.72424	
1.71967	
1.72424	
1.71967	
1.72272	
1.72729	
1.72729	
1.72882	
1.72272	
1.73035	
1.73187	
1.73492	
1.72882	
1.73035	
1.71509	
1.72119	
1.71509	
1.71509	
1.70593	
1.70593	
1.71509	
1.71967	
1.73492	
1.72882	
1.73645	
1.73645	
1.73492	
1.73492	
1.74866	
1.75323	
1.75781	
1.75171	
1.74866	
1.75018	
1.7334	
1.73035	
1.73798	
1.75171	
1.75018	
1.77002	
1.77002	
1.76849	
1.76239	
1.75018	
1.76544	
1.76849	
1.78528	
1.79443	
1.78528	
1.77155	
1.74713	
1.73492	
1.72882	
1.71509	
1.70898	
1.69373	
1.68152	
1.69678	
1.71051	
1.74103	
1.75018	
1.75476	
1.75323	
1.74561	
1.73187	
1.72577	
1.72424	
1.71967	
1.70898	
1.70593	
1.71814	
1.72577	
1.74255	
1.7395	
1.74561	
1.75781	
1.77002	
1.77155	
1.76697	
1.76086	
1.75781	
1.75171	
1.74713	
1.75171	
1.7395	
1.7334	
1.72729	
1.73492	
1.74103	
1.75018	
1.75018	
1.75629	
1.75476	
1.75629	
1.75629	
1.75323	
1.75629	
1.76392	
1.77917	
1.77155	
1.76849	
1.76544	
1.76239	
1.75171	
1.75018	
1.74103	
1.75629	
1.75323	
1.74713	
1.74255	
1.75171	
1.75476	
1.7395	
1.73645	
1.72882	
1.73187	
1.72729	
1.71814	
1.71509	
1.72882	
1.75934	
1.7746	
1.83411	
1.84479	
1.83411	
1.80817	
1.79596	
1.77002	
1.76086	
1.77155	
1.76849	
1.73492	
1.75171	
1.75934	
1.76239	
1.76697	
1.75781	
1.75934	
1.73798	
1.71814	
1.68457	
1.67847	
1.6861	
1.68762	
1.70135	
1.70746	
1.71051	
1.71051	
1.72119	
1.73035	
1.73035	
1.72577	
1.73035	
1.73035	
1.7334	
1.72424	
1.74103	
1.75629	
1.75018	
1.76392	
1.75934	
1.76086	
1.75171	
1.74561	
1.72424	
1.72729	
1.72424	
1.72119	
1.73035	
1.75018	
1.76392	
1.75629	
1.75018	
1.73645	
1.73492	
1.73187	
1.75018	
1.75323	
1.75323	
1.75323	
1.76697	
1.76086	
1.76086	
1.7868	
1.78375	
1.78833	
1.78375	
1.7807	
1.76697	
1.76544	
1.74103	
1.72119	
1.71051	
1.70288	
1.73035	
1.74561	
1.75171	
1.75629	
1.77002	
1.80511	
1.81122	
1.80511	
1.79596	
1.76544	
1.73798	
1.70898	
1.70135	
1.70288	
1.70288	
1.69678	
1.68762	
1.68915	
1.68304	
1.6861	
1.68152	
1.70135	
1.71051	
1.71051	
1.71509	
1.71509	
1.72577	
1.72424	
1.72577	
1.73035	
1.74255	
1.75171	
1.75934	
1.76086	
1.77155	
1.76544	
1.76544	
1.74561	
1.74713	
1.74866	
1.73035	
1.71967	
1.71967	
1.7334	
1.73035	
1.72424	
1.71051	
1.70898	
1.70593	
1.70593	
1.70898	
1.71509	
1.73187	
1.7807	
1.84479	
1.87836	
1.89362	
1.87531	
1.85547	
1.828	
1.81274	
1.78528	
1.75323	
1.72729	
1.70593	
1.69983	
1.68762	
1.6922	
1.67542	
1.65405	
1.62811	
1.63574	
1.66016	
1.68457	
1.68762	
1.68762	
1.69983	
1.69373	
1.70288	
1.69525	
1.70593	
1.70593	
1.71661	
1.72119	
1.72577	
1.71967	
1.72577	
1.71814	
1.72729	
1.73035	
1.72424	
1.72424	
1.71967	
1.72729	
1.72272	
1.72577	
1.71814	
1.72272	
1.72119	
1.72272	
1.73035	
1.72424	
1.72424	
1.72577	
1.72577	
1.72119	
1.72729	
1.7395	
1.74561	
1.75476	
1.76544	
1.76849	
1.79291	
1.79596	
1.78375	
1.77307	
1.75934	
1.74255	
1.71814	
1.69983	
1.67847	
1.67389	
1.67236	
1.67084	
1.67694	
1.68304	
1.6983	
1.70135	
1.71661	
1.71051	
1.71814	
1.71967	
1.73035	
1.73492	
1.73645	
1.73187	
1.7334	
1.7334	
1.75171	
1.76392	
1.78528	
1.80054	
1.79901	
1.79749	
1.82343	
1.82953	
1.83258	
1.81732	
1.79138	
1.78528	
1.77155	
1.73645	
1.70135	
1.67542	
1.67389	
1.66931	
1.66931	
1.67389	
1.66931	
1.67542	
1.69067	
1.69373	
1.69373	
1.6861	
1.68915	
1.69373	
1.69678	
1.70593	
1.70135	
1.70593	
1.70441	
1.7334	
1.7746	
1.78986	
1.78223	
1.77307	
1.78375	
1.79443	
1.80817	
1.79443	
1.77002	
1.7395	
1.70898	
1.68762	
1.68152	
1.66931	
1.66473	
1.64337	
1.66016	
1.66473	
1.66779	
1.68304	
1.69373	
1.71814	
1.72119	
1.73187	
1.72272	
1.72729	
1.72424	
1.73187	
1.74561	
1.75171	
1.77307	
1.7807	
1.77917	
1.77155	
1.76239	
1.74103	
1.73035	
1.71967	
1.72119	
1.70898	
1.71356	
1.70746	
1.70441	
1.70288	
1.70746	
1.73187	
1.73492	
1.74866	
1.73798	
1.74866	
1.75018	
1.74713	
1.74866	
1.75171	
1.75934	
1.76544	
1.77917	
1.77155	
1.76544	
1.76697	
1.76697	
1.78833	
1.79749	
1.77765	
1.76392	
1.74561	
1.75323	
1.73798	
1.74866	
1.75781	
1.74866	
1.73798	
1.71509	
1.72119	
1.6922	
1.69678	
1.71661	
1.73645	
1.75171	
1.74255	
1.72729	
1.72424	
1.71356	
1.71509	
1.70441	
1.69525	
1.68457	
1.67389	
1.67847	
1.68457	
1.69983	
1.69983	
1.72577	
1.74103	
1.74713	
1.74713	
1.73187	
1.72729	
1.73645	
1.7868	
1.81427	
1.80969	
1.79291	
1.76697	
1.75323	
1.73798	
1.72882	
1.72119	
1.70135	
1.67694	
1.67847	
1.68915	
1.70593	
1.70746	
1.72882	
1.71814	
1.72119	
1.71356	
1.71051	
1.71967	
1.71051	
1.70898	
1.71051	
1.71509	
1.71967	
1.72119	
1.73035	
1.75018	
1.76239	
1.75629	
1.74713	
1.73798	
1.7334	
1.75018	
1.75323	
1.74255	
1.74561	
1.74561	
1.74561	
1.72882	
1.7395	
1.75323	
1.74713	
1.73492	
1.72272	
1.71051	
1.69525	
1.71661	
1.71814	
1.72119	
1.70898	
1.70898	
1.72882	
1.7395	
1.75018	
1.75171	
1.7334	
1.71356	
1.70288	
1.68915	
1.69373	
1.70593	
1.71661	
1.70441	
1.71967	
1.72119	
1.73492	
1.74255	
1.75476	
1.75934	
1.75323	
1.75171	
1.7334	
1.73035	
1.71661	
1.72119	
1.72119	
1.74103	
1.75629	
1.77002	
1.77765	
1.76392	
1.73798	
1.72577	
1.70441	
1.6861	
1.67694	
1.66473	
1.66626	
1.66626	
1.68457	
1.68457	
1.69067	
1.70288	
1.70441	
1.70441	
1.70441	
1.71356	
1.71356	
1.71661	
1.71661	
1.72119	
1.71661	
1.71814	
1.72272	
1.72272	
1.72729	
1.74561	
1.76697	
1.77002	
1.80359	
1.80359	
1.78986	
1.76086	
1.73492	
1.70441	
1.68762	
1.67236	
1.66473	
1.65558	
1.64337	
1.67389	
1.6922	
1.72729	
1.73798	
1.7395	
1.72577	
1.72577	
1.72119	
1.71967	
1.70898	
1.70288	
1.69373	
1.69983	
1.71967	
1.73645	
1.73035	
1.75629	
1.81885	
1.84021	
1.84784	
1.82953	
1.80511	
1.77155	
1.74713	
1.71967	
1.69067	
1.67389	
1.66168	
1.65863	
1.66321	
1.66931	
1.6571	
1.66016	
1.67542	
1.6861	
1.69525	
1.69525	
1.69373	
1.69067	
1.70441	
1.70746	
1.71356	
1.71356	
1.72424	
1.71967	
1.74255	
1.76086	
1.76392	
1.75323	
1.7395	
1.7334	
1.72119	
1.71967	
1.71356	
1.70746	
1.70441	
1.71661	
1.70898	
1.72272	
1.75323	
1.76392	
1.79443	
1.81885	
1.80969	
1.77917	
1.74713	
1.71661	
1.6983	
1.67542	
1.65405	
1.63879	
1.64032	
1.62964	
1.62811	
1.64337	
1.67389	
1.69067	
1.68762	
1.69678	
1.70441	
1.70593	
1.70135	
1.6983	
1.69678	
1.69525	
1.69525	
1.6922	
1.6922	
1.70288	
1.71661	
1.72272	
1.72119	
1.71814	
1.71509	
1.70441	
1.72882	
1.75323	
1.75629	
1.76544	
1.76086	
1.75934	
1.74255	
1.72882	
1.70746	
1.69678	
1.69678	
1.69525	
1.69983	
1.73492	
1.7395	
1.73645	
1.74866	
1.75323	
1.74103	
1.72424	
1.71509	
1.72577	
1.72424	
1.71509	
1.70135	
1.68457	
1.67847	
1.66779	
1.65863	
1.66016	
1.65405	
1.66626	
1.66626	
1.68152	
1.6983	
1.70746	
1.71967	
1.7334	
1.76697	
1.79443	
1.79596	
1.7868	
1.76239	
1.74255	
1.73035	
1.70593	
1.70593	
1.68457	
1.67084	
1.651	
1.66016	
1.67542	
1.68762	
1.70441	
1.70898	
1.73492	
1.73645	
1.74866	
1.74561	
1.74255	
1.74103	
1.75781	
1.75171	
1.74255	
1.72729	
1.70746	
1.68304	
1.67084	
1.66626	
1.66626	
1.66779	
1.66779	
1.67389	
1.68762	
1.69525	
1.68915	
1.70135	
1.70898	
1.71814	
1.71814	
1.71051	
1.71814	
1.70746	
1.71356	
1.71356	
1.71661	
1.71051	
1.70898	
1.71356	
1.72119	
1.70898	
1.70898	
1.71356	
1.72577	
1.75476	
1.76544	
1.76392	
1.76239	
1.75781	
1.7395	
1.7334	
1.72272	
1.70441	
1.69525	
1.68762	
1.67694	
1.6861	
1.69983	
1.70441	
1.72119	
1.72424	
1.7334	
1.72882	
1.73035	
1.71967	
1.70898	
1.70135	
1.69678	
1.70135	
1.71356	
1.70898	
1.70288	
1.71967	
1.71661	
1.72424	
1.72272	
1.71967	
1.6983	
1.6922	
1.69525	
1.68457	
1.68915	
1.68457	
1.67847	
1.68304	
1.70593	
1.72424	
1.72882	
1.72272	
1.71356	
1.70746	
1.69983	
1.6922	
1.67542	
1.68152	
1.68457	
1.69067	
1.70135	
1.71509	
1.70441	
1.71814	
1.72577	
1.73035	
1.73035	
1.71814	
1.71661	
1.70593	
1.70288	
1.69067	
1.6922	
1.69373	
1.70593	
1.70593	
1.71814	
1.72424	
1.73035	
1.74713	
1.78986	
1.8158	
1.80206	
1.78375	
1.75629	
1.73492	
1.70593	
1.69678	
1.67389	
1.66321	
1.64337	
1.651	
1.67084	
1.67084	
1.66931	
1.67542	
1.69373	
1.71051	
1.71814	
1.71509	
1.71051	
1.69525	
1.69525	
1.6861	
1.68762	
1.6983	
1.70135	
1.70746	
1.71051	
1.71814	
1.71356	
1.73492	
1.72729	
1.72577	
1.71509	
1.71509	
1.70746	
1.69983	
1.70593	
1.69525	
1.69373	
1.68457	
1.68457	
1.6861	
1.6922	
1.68915	
1.6922	
1.6983	
1.71509	
1.71356	
1.71051	
1.71661	
1.70135	
1.70135	
1.69525	
1.69525	
1.68915	
1.72119	
1.73645	
1.75476	
1.75018	
1.74866	
1.73798	
1.72119	
1.70898	
1.69067	
1.68762	
1.67542	
1.66016	
1.6449	
1.64948	
1.65863	
1.67236	
1.6983	
1.71814	
1.72424	
1.71814	
1.74103	
1.73798	
1.7395	
1.71967	
1.71509	
1.6983	
1.6983	
1.6922	
1.6922	
1.70135	
1.70746	
1.72119	
1.73035	
1.72882	
1.7334	
1.7395	
1.75171	
1.75934	
1.75323	
1.74255	
1.7334	
1.72729	
1.69983	
1.69983	
1.68915	
1.66168	
1.65405	
1.65405	
1.66626	
1.66321	
1.66779	
1.66779	
1.67236	
1.67236	
1.68152	
1.6861	
1.6922	
1.6983	
1.70135	
1.71051	
1.71967	
1.73187	
1.72577	
1.72272	
1.71356	
1.71814	
1.7395	
1.75018	
1.74103	
1.72729	
1.72577	
1.70746	
1.70135	
1.6861	
1.68457	
1.66779	
1.6861	
1.68915	
1.69983	
1.70593	
1.70593	
1.72119	
1.71509	
1.71356	
1.72272	
1.74713	
1.75629	
1.78528	
1.79749	
1.79749	
1.77307	
1.74866	
1.70746	
1.68762	
1.67389	
1.651	
1.6449	
1.63727	
1.66016	
1.68304	
1.71509	
1.72424	
1.73035	
1.72577	
1.72882	
1.72119	
1.70135	
1.69067	
1.68152	
1.67236	
1.67084	
1.69525	
1.71814	
1.72424	
1.72272	
1.72272	
1.71509	
1.72272	
1.71509	
1.70135	
1.70288	
1.70288	
1.70898	
1.70746	
1.72119	
1.71967	
1.73492	
1.72882	
1.71814	
1.72424	
1.7395	
1.75781	
1.76086	
1.75629	
1.73645	
1.73492	
1.74103	
1.75171	
1.73798	
1.74255	
1.72729	
1.71661	
1.69525	
1.69525	
1.70288	
1.69373	
1.68915	
1.67236	
1.67084	
1.67236	
1.68152	
1.67389	
1.69067	
1.69678	
1.73035	
1.74713	
1.74866	
1.73492	
1.72272	
1.73035	
1.73492	
1.7334	
1.72119	
1.70593	
1.6922	
1.6922	
1.68762	
1.70898	
1.72119	
1.7395	
1.75781	
1.77002	
1.79291	
1.79443	
1.78375	
1.75018	
1.7334	
1.6983	
1.67542	
1.66931	
1.66321	
1.6571	
1.6449	
1.6449	
1.66016	
1.68304	
1.69373	
1.70135	
1.71509	
1.72577	
1.72119	
1.73187	
1.72577	
1.72729	
1.72577	
1.72119	
1.71356	
1.69983	
1.70746	
1.70135	
1.71051	
1.69983	
1.70441	
1.70441	
1.71661	
1.72272	
1.71814	
1.71356	
1.71661	
1.72272	
1.71967	
1.71509	
1.70593	
1.70593	
1.69678	
1.70135	
1.70593	
1.71814	
1.71814	
1.70441	
1.70288	
1.70898	
1.72882	
1.73492	
1.7395	
1.73187	
1.73187	
1.72577	
1.72577	
1.71509	
1.70441	
1.6983	
1.6861	
1.66931	
1.66321	
1.67236	
1.66931	
1.70135	
1.72882	
1.75629	
1.75629	
1.75934	
1.78223	
1.78375	
1.76697	
1.73645	
1.71661	
1.68915	
1.67236	
1.64337	
1.6449	
1.65558	
1.67084	
1.66779	
1.67084	
1.68762	
1.68762	
1.69983	
1.70898	
1.71356	
1.72119	
1.72882	
1.72882	
1.73492	
1.74866	
1.73798	
1.71509	
1.70593	
1.68915	
1.67236	
1.67084	
1.66779	
1.66626	
1.67084	
1.67542	
1.66321	
1.68304	
1.69067	
1.70441	
1.70441	
1.69983	
1.70441	
1.70593	
1.70593	
1.70135	
1.70746	
1.70746	
1.71814	
1.72424	
1.72424	
1.70898	
1.71051	
1.70135	
1.70441	
1.70441	
1.6983	
1.69525	
1.68152	
1.6922	
1.69067	
1.70593	
1.6983	
1.70898	
1.70898	
1.71509	
1.71356	
1.70746	
1.70593	
1.6983	
1.69983	
1.69983	
1.69983	
1.69525	
1.69525	
1.71356	
1.7334	
1.72577	
1.72882	
1.71967	
1.71051	
1.69983	
1.69525	
1.68915	
1.68152	
1.67694	
1.66626	
1.68457	
1.70288	
1.72729	
1.7334	
1.73187	
1.75171	
1.78223	
1.79443	
1.79749	
1.78375	
1.75476	
1.73035	
1.70288	
1.6861	
1.67847	
1.67847	
1.64948	
1.63727	
1.64185	
1.64032	
1.63727	
1.64032	
1.67542	
1.68304	
1.68915	
1.69678	
1.70593	
1.69525	
1.70593	
1.71356	
1.71661	
1.71509	
1.70898	
1.70593	
1.70898	
1.70441	
1.69373	
1.70898	
1.71356	
1.72119	
1.71356	
1.71967	
1.72272	
1.7395	
1.74255	
1.7395	
1.73187	
1.71356	
1.70441	
1.70288	
1.72729	
1.73645	
1.72882	
1.70135	
1.6922	
1.69678	
1.69373	
1.70288	
1.70746	
1.70288	
1.68304	
1.67542	
1.67694	
1.68457	
1.6861	
1.69067	
1.70898	
1.72424	
1.72424	
1.71967	
1.71661	
1.70898	
1.76544	
1.78528	
1.79291	
1.76544	
1.74561	
1.71967	
1.70441	
1.68457	
1.66779	
1.65253	
1.64032	
1.62354	
1.63422	
1.66168	
1.66779	
1.68915	
1.70135	
1.70898	
1.6922	
1.6983	
1.70135	
1.69678	
1.6922	
1.6983	
1.70135	
1.6922	
1.69525	
1.68915	
1.6922	
1.69067	
1.70288	
1.70441	
1.69983	
1.69983	
1.71356	
1.73492	
1.74103	
1.75323	
1.7395	
1.77155	
1.76392	
1.75934	
1.7395	
1.74713	
1.76544	
1.7807	
1.76392	
1.76086	
1.75629	
1.72729	
1.6983	
1.66779	
1.66626	
1.67542	
1.6861	
1.6571	
1.65405	
1.65558	
1.66016	
1.6571	
1.6861	
1.71051	
1.70746	
1.70441	
1.68304	
1.67847	
1.68152	
1.69373	
1.68762	
1.68915	
1.70135	
1.69373	
1.68304	
1.68762	
1.69373	
1.68152	
1.6861	
1.67542	
1.67084	
1.66779	
1.67084	
1.66779	
1.66473	
1.68152	
1.6922	
1.69983	
1.70135	
1.70135	
1.69983	
1.70441	
1.71661	
1.72577	
1.74255	
1.75171	
1.75018	
1.75323	
1.73798	
1.72424	
1.70593	
1.6983	
1.69983	
1.70135	
1.69983	
1.6861	
1.72729	
1.7807	
1.78833	
1.80054	
1.80359	
1.81427	
1.79443	
1.76697	
1.73492	
1.70593	
1.66779	
1.63116	
1.59912	
1.60065	
1.58997	
1.6037	
1.62201	
1.64185	
1.65863	
1.67084	
1.67847	
1.67847	
1.68915	
1.68304	
1.69525	
1.6983	
1.70135	
1.70288	
1.69678	
1.6983	
1.71051	
1.72882	
1.73645	
1.73798	
1.73645	
1.74561	
1.7395	
1.73035	
1.71509	
1.70593	
1.68304	
1.67542	
1.66779	
1.66626	
1.69067	
1.71051	
1.71661	
1.70288	
1.70288	
1.69373	
1.6983	
1.6983	
1.70288	
1.70593	
1.70746	
1.70593	
1.70135	
1.70593	
1.70441	
1.70746	
1.70135	
1.70441	
1.70135	
1.70593	
1.70288	
1.70593	
1.70135	
1.70288	
1.70441	
1.70746	
1.70898	
1.70441	
1.70746	
1.70135	
1.70593	
1.70441	
1.70898	
1.70288	
1.70135	
1.70135	
1.70746	
1.70593	
1.70135	
1.70593	
1.70135	
1.70898	
1.75934	
1.79901	
1.79596	
1.81427	
1.82343	
1.81732	
1.80206	
1.80054	
1.77155	
1.73492	
1.69373	
1.6571	
1.63116	
1.62659	
1.61591	
1.60675	
1.61285	
1.63727	
1.62964	
1.64642	
1.66626	
1.66321	
1.67236	
1.69678	
1.68915	
1.6861	
1.6861	
1.6922	
1.69373	
1.70441	
1.69983	
1.70288	
1.69983	
1.70746	
1.71661	
1.71661	
1.71661	
1.70898	
1.70441	
1.71661	
1.71509	
1.71356	
1.71051	
1.70593	
1.70135	
1.69525	
1.68457	
1.68152	
1.67236	
1.68304	
1.6861	
1.69678	
1.69678	
1.71051	
1.70746	
1.71051	
1.70898	
1.70441	
1.70746	
1.69983	
1.70441	
1.70593	
1.70593	
1.69678	
1.6983	
1.69373	
1.6983	
1.6983	
1.69373	
1.69067	
1.69525	
1.7334	
1.80359	
1.85699	
1.86615	
1.8631	
1.87225	
1.86615	
1.8631	
1.82037	
1.75934	
1.69983	
1.62354	
1.58081	
1.56097	
1.5564	
1.56708	
1.5625	
1.58844	
1.60675	
1.63574	
1.66321	
1.67084	
1.66473	
1.67389	
1.67389	
1.67389	
1.68457	
1.6922	
1.69525	
1.69373	
1.69678	
1.69678	
1.69983	
1.6922	
1.72119	
1.77155	
1.89819	
1.96075	
1.95465	
1.94397	
1.91345	
1.85699	
1.77917	
1.70288	
1.62506	
1.5625	
1.51215	
1.47858	
1.50146	
1.56403	
1.61438	
1.64642	
1.67084	
1.67847	
1.67236	
1.67236	
1.68152	
1.6861	
1.69373	
1.6922	
1.69525	
1.6983	
1.70135	
1.70898	
1.70441	
1.70288	
1.71356	
1.72882	
1.74713	
1.75629	
1.75323	
1.75018	
1.73645	
1.73187	
1.71814	
1.70288	
1.69678	
1.67847	
1.67847	
1.67542	
1.67847	
1.67542	
1.69067	
1.69067	
1.69373	
1.68762	
1.68915	
1.6922	
1.6922	
1.69983	
1.69678	
1.70135	
1.70135	
1.70288	
1.70593	
1.71661	
1.74103	
1.77155	
1.8219	
1.87988	
1.9104	
1.9165	
1.90582	
1.85699	
1.8219	
1.75476	
1.69678	
1.63116	
1.55945	
1.50909	
1.52435	
1.57013	
1.61133	
1.6449	
1.651	
1.65863	
1.67389	
1.67542	
1.67542	
1.67694	
1.67389	
1.68304	
1.68762	
1.69067	
1.69525	
1.70441	
1.70746	
1.70898	
1.72272	
1.73187	
1.78986	
1.87836	
1.96075	
2.02026	
2.04163	
2.01569	
1.94855	
1.86462	
1.78528	
1.70746	
1.63879	
1.56403	
1.51825	
1.49231	
1.46637	
1.48621	
1.56555	
1.63727	
1.66779	
1.67389	
1.69525	
1.71814	
1.73035	
1.70746	
1.69983	
1.69525	
1.70441	
1.72729	
1.81885	
1.84479	
1.87683	
1.87683	
1.85699	
1.82953	
1.77765	
1.75781	
1.74866	
1.74103	
1.72577	
1.69067	
1.66321	
1.70441	
1.72272	
1.72119	
1.70593	
1.6983	
1.66626	
1.63269	
1.61896	
1.60675	
1.59454	
1.58234	
1.6037	
1.62811	
1.68152	
1.73187	
1.75934	
1.77307	
1.77765	
1.75934	
1.76392	
1.78986	
1.75476	
1.72882	
1.67847	
1.65253	
1.64337	
1.64032	
1.64337	
1.67389	
1.65253	
1.64337	
1.65863	
1.64948	
1.64032	
1.64032	
1.66168	
1.67542	
1.67694	
1.67542	
1.68762	
1.6922	
1.71356	
1.74255	
1.80511	
1.9165	
1.99585	
2.08282	
2.11639	
2.07367	
2.00958	
1.97144	
1.94092	
1.86615	
1.7746	
1.6861	
1.61438	
1.56097	
1.5686	
1.57623	
1.58691	
1.6098	
1.63269	
1.5976	
1.63727	
1.66779	
1.72882	
1.74713	
1.74713	
1.75171	
1.72882	
1.70746	
1.68304	
1.67389	
1.64185	
1.63574	
1.62811	
1.6571	
1.6861	
1.6983	
1.71967	
1.84784	
1.93939	
1.91345	
1.88751	
1.90887	
1.88293	
1.84174	
1.78986	
1.69678	
1.63574	
1.5686	
1.53656	
1.51672	
1.53809	
1.56403	
1.56097	
1.6098	
1.63422	
1.64337	
1.67847	
1.68762	
1.67542	
1.67694	
1.67236	
1.68457	
1.66779	
1.65863	
1.67542	
1.69373	
1.72729	
1.75781	
1.79596	
1.8631	
2.01569	
2.07062	
2.05688	
2.04315	
2.03857	
2.02026	
1.96381	
1.89362	
1.82495	
1.77765	
1.72119	
1.6922	
1.64948	
1.64642	
1.62354	
1.5976	
1.58234	
1.58844	
1.62201	
1.651	
1.68762	
1.74866	
1.79901	
1.86005	
1.91498	
1.99127	
1.97296	
1.92108	
2.06604	
2.20795	
2.31018	
2.31171	
2.27661	
2.19421	
2.06604	
1.94092	
1.82037	
1.70593	
1.59912	
1.4801	
1.39771	
1.37024	
1.35956	
1.4328	
1.51367	
1.48621	
1.47247	
1.49994	
1.66931	
1.75934	
1.7746	
1.90582	
2.14996	
2.20642	
2.22778	
2.23389	
2.22168	
2.1286	
1.96381	
1.77002	
1.6922	
1.61285	
1.49384	
1.39618	
1.3504	
1.33972	
1.31073	
1.33667	
1.47095	
1.52893	
1.56555	
1.54572	
1.651	
1.75934	
1.83716	
1.93939	
2.0401	
2.04468	
2.03552	
2.10571	
2.15454	
2.15912	
2.14386	
2.02332	
1.97296	
1.93634	
1.89362	
1.86157	
1.83411	
1.77155	
1.64948	
1.57471	
1.5625	
1.53809	
1.53961	
1.53809	
1.53351	
1.57318	
1.62354	
1.65253	
1.75323	
1.90125	
2.01569	
1.99432	
1.98822	
2.03247	
1.98822	
1.97144	
1.9516	
1.85852	
1.82037	
1.72272	
1.60675	
1.51367	
1.39923	
1.35193	
1.34888	
1.37024	
1.33362	
1.31989	
1.37024	
1.50299	
1.58081	
1.66016	
1.7334	
1.76086	
1.76086	
1.77155	
1.80969	
1.83105	
1.80206	
1.76697	
1.76239	
1.76849	
1.75934	
1.88293	
2.04926	
2.20947	
2.20947	
2.19421	
2.11945	
2.08435	
1.93787	
1.79291	
1.66168	
1.48163	
1.36108	
1.32751	
1.39618	
1.42975	
1.49689	
1.54877	
1.55182	
1.54877	
1.53656	
1.62964	
1.68762	
1.72882	
1.76086	
1.828	
1.81122	
1.7868	
1.8219	
1.78375	
1.77155	
1.70593	
1.63574	
1.59912	
1.54266	
1.47705	
1.46332	
1.4801	
1.55182	
1.56097	
1.70135	
2.02789	
2.22168	
2.22626	
2.20947	
2.13013	
2.01111	
1.88293	
1.71661	
1.53961	
1.3855	
1.28326	
1.27411	
1.23138	
1.27106	
1.36871	
1.42059	
1.57166	
1.67084	
1.7746	
1.91956	
2.03094	
2.06757	
2.00806	
1.96991	
1.93329	
1.88293	
1.84021	
1.77917	
1.66473	
1.59149	
1.5625	
1.56097	
1.54572	
1.54724	
1.52283	
1.49841	
1.48315	
1.53198	
1.56555	
1.60522	
1.75781	
1.88141	
1.97754	
2.00043	
2.01111	
1.96991	
1.85242	
1.79596	
1.71967	
1.64032	
1.52283	
1.47247	
1.45264	
1.41449	
1.40228	
1.54724	
1.76239	
1.88293	
1.96075	
2.01416	
1.97449	
1.90735	
1.828	
1.7868	
1.73645	
1.62048	
1.57471	
1.55029	
1.53503	
1.58386	
1.61133	
1.64337	
1.6449	
1.66321	
1.70593	
1.81274	
1.91803	
2.02789	
2.18353	
2.21252	
2.18658	
2.14233	
2.01569	
1.84937	
1.69983	
1.59302	
1.53198	
1.474	
1.46332	
1.46179	
1.55945	
1.57776	
1.53961	
1.5152	
1.56708	
1.60217	
1.61896	
1.61285	
1.56403	
1.62048	
1.67694	
1.7334	
1.78986	
1.8158	
1.93176	
1.92108	
1.88293	
1.80359	
1.78375	
1.89209	
1.87988	
1.8692	
1.93787	
1.98059	
2.00958	
1.95465	
1.95007	
1.93939	
1.89972	
1.8219	
1.75629	
1.62659	
1.46332	
1.40076	
1.41144	
1.41602	
1.45721	
1.46332	
1.49841	
1.52283	
1.56097	
1.57013	
1.60522	
1.59607	
1.64948	
1.70135	
1.75781	
1.76544	
1.78375	
1.79901	
1.89514	
1.92413	
2.01263	
2.07062	
2.02332	
1.9989	
1.99585	
1.93634	
1.82953	
1.72577	
1.67847	
1.67236	
1.66321	
1.67542	
1.76239	
1.80817	
1.85699	
1.88751	
1.87988	
1.81274	
1.76086	
1.70746	
1.63727	
1.54266	
1.46942	
1.43127	
1.3916	
1.43585	
1.49078	
1.5625	
1.60522	
1.67084	
1.72424	
1.80511	
1.90582	
1.9104	
1.88599	
1.93024	
1.96686	
2.03094	
2.03552	
1.95618	
1.8692	
1.83563	
1.79901	
1.81732	
1.84174	
1.87225	
2.06757	
2.15454	
2.16675	
2.08282	
2.00348	
1.87378	
1.74103	
1.62659	
1.51367	
1.49536	
1.47095	
1.53503	
1.60522	
1.70135	
1.90887	
2.01721	
2.05994	
2.00653	
1.93329	
1.83258	
1.77917	
1.71509	
1.68762	
1.68304	
1.64948	
1.67236	
1.70135	
1.68915	
1.67847	
1.70135	
1.76086	
1.79291	
1.78223	
1.83716	
1.94244	
1.9989	
1.97601	
1.92261	
1.94397	
1.94092	
1.88751	
1.84479	
1.78528	
1.74713	
1.68457	
1.5976	
1.57623	
1.5686	
1.58691	
1.61438	
1.61591	
1.65253	
1.68915	
1.6983	
1.71051	
1.72424	
1.66779	
1.65863	
1.68915	
1.69678	
1.71356	
1.77917	
1.7807	
1.84174	
1.94397	
1.97296	
1.9516	
1.89972	
1.84174	
1.75323	
1.66321	
1.55792	
1.53046	
1.52435	
1.5274	
1.58844	
1.71051	
1.91345	
2.04468	
2.07825	
2.0462	
2.005	
1.94397	
1.83563	
1.76086	
1.69983	
1.67236	
1.77155	
1.98212	
2.01569	
1.93329	
1.78986	
1.80817	
1.81885	
1.73187	
1.60217	
1.54572	
1.50452	
1.44196	
1.55945	
1.66931	
1.70288	
1.79749	
1.84326	
1.85852	
1.87836	
1.87531	
1.8219	
1.80359	
1.79138	
1.74866	
1.6983	
1.59912	
1.61896	
1.77002	
1.91956	
1.98822	
2.01263	
2.06757	
2.0462	
1.95007	
1.83563	
1.69678	
1.5564	
1.46027	
1.39008	
1.39923	
1.38397	
1.39771	
1.44501	
1.54724	
1.62964	
1.74255	
1.85699	
1.88904	
1.92413	
1.95618	
1.96381	
1.94702	
1.94244	
1.89819	
1.8219	
1.77917	
1.74866	
1.72882	
1.87225	
1.93634	
1.95313	
1.88599	
1.8692	
1.82037	
1.7807	
1.70746	
1.62659	
1.59607	
1.60522	
1.62506	
1.62048	
1.67389	
1.80511	
1.87683	
1.83563	
1.92261	
1.97296	
2.005	
1.98975	
1.97144	
1.9043	
1.84174	
1.80969	
1.74561	
1.76392	
1.78528	
1.81122	
1.85852	
1.78223	
1.67236	
1.62964	
1.62201	
1.651	
1.63269	
1.58081	
1.54877	
1.58081	
1.62811	
1.68304	
1.72882	
1.75781	
1.78375	
1.81885	
1.84631	
1.81274	
2.00195	
2.23541	
2.31018	
2.29187	
2.27814	
2.15912	
2.01416	
1.81427	
1.68304	
1.55792	
1.5976	
1.47247	
1.31073	
1.31531	
1.34888	
1.3382	
1.3916	
1.46027	
1.53656	
1.58386	
1.62354	
1.64337	
1.66473	
1.71356	
1.70135	
1.6983	
1.64948	
1.64948	
1.64337	
1.63574	
1.63269	
1.67542	
1.71356	
1.72424	
1.70593	
1.69373	
1.72882	
1.79291	
1.83563	
1.79901	
1.74561	
1.75171	
1.75629	
1.72577	
1.6098	
1.5625	
1.58386	
1.5625	
1.41144	
1.38855	
1.39008	
1.47095	
1.53961	
1.6098	
1.6922	
1.74713	
1.7807	
1.78833	
1.77917	
1.75171	
1.74713	
1.72424	
1.72272	
1.75171	
1.75781	
1.71356	
1.72119	
1.76544	
1.84021	
1.87378	
1.85547	
1.84326	
1.81732	
1.78375	
1.67694	
1.5686	
1.41907	
1.3092	
1.25122	
1.27869	
1.27716	
1.23749	
1.28632	
1.39771	
1.54877	
1.61591	
1.70441	
1.79749	
1.80054	
1.828	
1.83716	
1.85547	
1.84174	
1.75629	
1.74713	
1.79749	
1.82648	
1.72882	
1.67694	
1.6861	
1.62506	
1.60828	
1.58844	
1.51672	
1.53198	
1.51062	
1.45416	
1.49231	
1.55182	
1.6571	
1.66016	
1.61896	
1.54266	
1.48468	
1.54419	
1.63574	
1.72577	
1.71051	
1.69525	
1.6861	
1.65863	
1.6922	
1.67694	
1.67084	
1.64185	
1.6571	
1.65405	
1.60828	
1.65405	
1.72119	
1.79443	
1.81427	
1.63574	
1.56403	
1.53503	
1.56555	
1.64337	
1.6861	
1.77307	
1.74255	
1.73645	
1.70593	
1.69983	
1.69983	
1.651	
1.55182	
1.51825	
1.5152	
1.50146	
1.57318	
1.59607	
1.651	
1.75934	
1.83411	
1.82953	
1.84937	
1.82037	
1.76544	
1.71967	
1.53809	
1.4801	
1.45416	
1.44958	
1.4679	
1.50604	
1.47705	
1.45111	
1.41449	
1.40533	
1.42975	
1.4389	
1.4328	
1.37939	
1.38702	
1.40991	
1.4389	
1.50452	
1.56097	
1.57928	
1.62048	
1.68152	
1.74255	
1.70441	
1.63574	
1.62964	
1.65405	
1.60675	
1.53961	
1.57166	
1.66473	
1.75629	
1.74713	
1.77002	
1.76849	
1.64642	
1.56097	
1.45721	
1.45569	
1.47095	
1.49994	
1.474	
1.50604	
1.56097	
1.52893	
1.51062	
1.55182	
1.57776	
1.60065	
1.60828	
1.55182	
1.41296	
1.44348	
1.54114	
1.57928	
1.67084	
1.75018	
1.8158	
1.92871	
1.94702	
1.95618	
1.87988	
1.76849	
1.51978	
1.44043	
1.3916	
1.36719	
1.37024	
1.36719	
1.44806	
1.44806	
1.44501	
1.3916	
1.42059	
1.46637	
1.49384	
1.44958	
1.4328	
1.41754	
1.41907	
1.41602	
1.47247	
1.46332	
1.42365	
1.47705	
1.51825	
1.6098	
1.65253	
1.66931	
1.64185	
1.62048	
1.5625	
1.48773	
1.50452	
1.49536	
1.49536	
1.54877	
1.59302	
1.60217	
1.59607	
1.56097	
1.56708	
1.5976	
1.62811	
1.59607	
1.59912	
1.64185	
1.65558	
1.59302	
1.46637	
1.32446	
1.2619	
1.27869	
1.35498	
1.40686	
1.40686	
1.39618	
1.41907	
1.5274	
1.53656	
1.54724	
1.66626	
1.76086	
1.82343	
1.84479	
1.84021	
1.8692	
1.81122	
1.66931	
1.51825	
1.35803	
1.26038	
1.25732	
1.25885	
1.28174	
1.35345	
1.474	
1.52283	
1.60675	
1.55945	
1.46484	
1.37634	
1.25275	
1.24512	
1.30768	
1.36871	
1.39008	
1.48163	
1.61285	
1.69067	
1.76239	
1.75476	
1.71356	
1.58386	
1.34583	
1.19781	
1.26038	
1.26495	
1.37787	
1.39923	
1.44958	
1.40839	
1.39771	
1.43127	
1.41754	
1.39771	
1.47095	
1.40076	
1.35803	
1.27869	
1.23291	
1.19324	
1.21613	
1.25885	
1.33972	
1.37787	
1.49231	
1.5625	
1.6449	
1.68457	
1.70288	
1.75323	
1.85089	
1.81122	
1.68152	
1.58234	
1.53351	
1.49078	
1.29852	
1.09863	
0.959778	
1.10626	
1.1795	
1.19019	
1.21155	
1.21307	
1.25732	
1.31836	
1.38855	
1.42822	
1.45416	
1.37787	
1.41907	
1.35651	
1.35956	
1.32294	
1.32141	
1.33972	
1.37177	
1.46484	
1.49689	
1.54114	
1.57623	
1.51825	
1.40839	
1.37329	
1.31073	
1.35193	
1.39771	
1.31836	
1.33057	
1.25732	
1.18256	
1.29852	
1.31378	
1.40076	
1.3504	
1.3031	
1.35498	
1.40533	
1.45111	
1.48773	
1.55182	
1.59302	
1.67847	
1.75171	
1.78223	
1.7334	
1.56555	
1.53046	
1.5152	
1.34888	
1.22833	
1.15051	
1.11847	
1.09406	
1.08185	
1.15967	
1.18561	
1.19324	
1.23291	
1.28479	
1.42975	
1.48621	
1.46637	
1.36566	
1.31073	
1.24512	
1.35498	
1.49841	
1.51978	
1.59302	
1.61896	
1.63269	
1.60828	
1.54419	
1.55182	
1.55029	
1.54114	
1.54419	
1.47858	
1.4328	
1.25122	
0.967407	
0.968933	
1.09253	
1.17035	
1.19629	
1.16577	
1.14441	
1.20239	
1.38397	
1.50909	
1.53198	
1.58844	
1.50909	
1.4389	
1.37939	
1.46332	
1.48315	
1.50146	
1.49689	
1.43127	
1.41296	
1.43585	
1.45111	
1.46637	
1.51672	
1.53809	
1.53198	
1.53198	
1.57928	
1.60065	
1.61591	
1.57776	
1.53656	
1.52588	
1.49689	
1.52588	
1.47247	
1.34735	
1.28021	
1.27869	
1.31683	
1.36414	
1.41296	
1.47858	
1.5625	
1.59607	
1.5564	
1.53809	
1.45264	
1.26953	
1.30463	
1.24512	
1.25732	
1.297	
1.32904	
1.30463	
1.24054	
1.25275	
1.34735	
1.32599	
1.14746	
1.19476	
1.27258	
1.38245	
1.56555	
1.70288	
1.6098	
1.70441	
1.67236	
1.59149	
1.57013	
1.43127	
1.4389	
1.44653	
1.47095	
1.46942	
1.47247	
1.45264	
1.44958	
1.4328	
1.43433	
1.46027	
1.44806	
1.45111	
1.50757	
1.51978	
1.49841	
1.42059	
1.2619	
1.23444	
1.31226	
1.37634	
1.4328	
1.54724	
1.62048	
1.66626	
1.57013	
1.50299	
1.4679	
1.52283	
1.44501	
1.44501	
1.5152	
1.6037	
1.65405	
1.54114	
1.53809	
1.46332	
1.38397	
1.38702	
1.3443	
1.33057	
1.33667	
1.37024	
1.34125	
1.33362	
1.34277	
1.38855	
1.40076	
1.43127	
1.37634	
1.33972	
1.44653	
1.56708	
1.64032	
1.61438	
1.54114	
1.55792	
1.44043	
1.35498	
1.35956	
1.42212	
1.47552	
1.49078	
1.54114	
1.63727	
1.70288	
1.69373	
1.67084	
1.67389	
1.65558	
1.55182	
1.35803	
1.23444	
1.25427	
1.3916	
1.4328	
1.40228	
1.31683	
1.39008	
1.38397	
1.44653	
1.48773	
1.51367	
1.48773	
1.44653	
1.40228	
1.39923	
1.42822	
1.47552	
1.4328	
1.47705	
1.52435	
1.41449	
1.39008	
1.33514	
1.36566	
1.41602	
1.4679	
1.41602	
1.32141	
1.35651	
1.42365	
1.41449	
1.39923	
1.46027	
1.51978	
1.5274	
1.53046	
1.58691	
1.64032	
1.69678	
1.79901	
1.83258	
1.86615	
1.82953	
1.67389	
1.38855	
1.24817	
1.39771	
1.4389	
1.35803	
1.18866	
1.10321	
1.12152	
1.20544	
1.28479	
1.37787	
1.45721	
1.47858	
1.48773	
1.49536	
1.48468	
1.47552	
1.52893	
1.51367	
1.51062	
1.53503	
1.53351	
1.52283	
1.59302	
1.68304	
1.70746	
1.62964	
1.56097	
1.41296	
1.40381	
1.40839	
1.34125	
1.297	
1.31989	
1.27563	
1.28479	
1.28021	
1.27869	
1.27563	
1.2619	
1.24817	
1.20239	
1.23444	
1.27106	
1.3092	
1.3504	
1.29547	
1.24664	
1.3504	
1.39313	
1.50452	
1.6449	
1.71356	
1.76697	
1.74713	
1.50909	
1.3504	
1.35498	
1.47552	
1.35345	
1.31226	
1.29547	
1.33972	
1.36414	
1.40839	
1.39313	
1.3031	
1.32294	
1.33057	
1.3031	
1.31226	
1.22681	
1.3092	
1.3443	
1.34277	
1.31531	
1.28326	
1.24207	
1.22375	
1.18866	
1.29089	
1.3382	
1.30768	
1.43127	
1.51672	
1.5625	
1.61133	
1.61896	
1.56555	
1.53046	
1.45721	
1.4389	
1.38092	
1.38702	
1.40839	
1.31836	
1.21307	
1.1673	
1.03149	
1.02386	
1.09711	
1.19781	
1.23138	
1.25275	
1.22528	
1.25427	
1.43738	
1.4679	
1.53198	
1.48315	
1.55182	
1.31683	
1.05591	
1.06201	
1.03302	
1.09558	
1.12152	
1.1322	
1.18103	
1.19324	
1.15662	
1.19324	
1.22681	
1.30463	
1.44653	
1.48468	
1.46179	
1.33514	
1.1795	
1.12457	
1.12915	
1.1322	
1.07422	
1.01929	
1.06659	
1.09253	
1.12152	
1.16272	
1.22528	
1.2207	
1.28021	
1.31531	
1.23138	
1.16425	
1.10779	
1.18713	
1.24207	
1.27258	
1.2558	
1.22681	
1.18713	
1.20239	
1.11847	
1.06354	
1.02234	
1.02081	
1.03455	
0.993347	
1.02539	
0.878906	
0.924683	
1.02997	
1.08185	
1.00555	
0.949097	
0.93689	
0.920105	
0.92926	
0.947571	
0.961304	
0.967407	
0.98114	
1.02234	
0.991821	
1.00708	
0.964355	
0.98114	
0.984192	
0.984192	
0.96283	
0.9552	
0.927734	
0.970459	
1.01776	
1.06354	
1.08643	
1.07269	
0.949097	
0.900269	
0.967407	
0.895691	
0.733948	
0.634766	
0.67749	
0.695801	
0.752258	
0.80719	
0.75531	
0.8255	
0.871277	
0.794983	
0.675964	
0.654602	
0.706482	
0.778198	
0.813293	
0.784302	
0.799561	
0.790405	
0.764465	
0.805664	
0.753784	
0.753784	
0.872803	
0.91095	
0.8255	
0.741577	
0.753784	
0.799561	
0.804138	
0.852966	
0.932312	
0.901794	
0.770569	
0.6073	
0.582886	
0.569153	
0.483704	
0.413513	
0.440979	
0.532532	
0.559998	
0.552368	
0.556946	
0.584412	
0.627136	
0.631714	
0.648499	
0.650024	
0.640869	
0.656128	
0.617981	
0.616455	
0.669861	
0.772095	
0.814819	
0.672913	
0.523376	
0.526428	
0.497437	
0.453186	
0.488281	
0.566101	
0.598145	
0.628662	
0.650024	
0.628662	
0.453186	
0.404358	
0.408936	
0.393677	
0.402832	
0.431824	
0.486755	
0.50354	
0.471497	
0.39978	
0.358582	
0.387573	
0.492859	
0.527954	
0.518799	
0.558472	
0.535583	
0.540161	
0.671387	
0.724792	
0.679016	
0.698853	
0.68512	
0.650024	
0.57373	
0.52948	
0.491333	
0.389099	
0.332642	
0.309753	
0.299072	
0.439453	
0.488281	
0.531006	
0.486755	
0.448608	
0.431824	
0.35553	
0.357056	
0.448608	
0.524902	
0.497437	
0.331116	
0.250244	
0.259399	
0.308228	
0.300598	
0.360107	
0.497437	
0.598145	
0.668335	
0.756836	
0.794983	
0.737	
0.483704	
0.10376	
0.154114	
0.219727	
0.219727	
0.245667	
0.268555	
0.273132	
0.268555	
0.305176	
0.341797	
0.386047	
0.418091	
0.428772	
0.384521	
0.372314	
0.326538	
0.299072	
0.248718	
0.25177	
0.276184	
0.317383	
0.302124	
0.300598	
0.299072	
0.299072	
0.299072	
0.30365	
0.334167	
0.349426	
0.357056	
0.447083	
0.428772	
0.350952	
0.363159	
0.296021	
0.247192	
0.234985	
0.228882	
0.22583	
0.289917	
0.297546	
0.306702	
0.238037	
0.178528	
0.14801	
0.202942	
0.267029	
0.294495	
0.270081	
0.238037	
0.239563	
0.234985	
0.215149	
0.228882	
0.236511	
0.273132	
0.247192	
0.332642	
0.262451	
0.241089	
0.117493	
0.112915	
0.184631	
0.270081	
0.241089	
0.256348	
0.236511	
0.195313	
0.151062	
0.0930786	
0.119019	
0.115967	
0.0747681	
0.112915	
0.0900269	
0.0808716	
0.0976563	
0.0656128	
0.0671387	
0.0793457	
0.0778198	
0.100708	
0.0671387	
0.0656128	
0.0900269	
0.105286	
0.123596	
0.143433	
0.14801	
0.0915527	
-0.00610352	
0.00457764	
-0.0244141	
-0.0839233	
-0.0488281	
-0.0167847	
0.00457764	
-0.00305176	
0	
-0.00610352	
-0.0137329	
-0.0244141	
-0.0137329	
-0.0213623	
-0.0366211	
-0.0152588	
-0.00610352	
0.00152588	
-0.00762939	
-0.00762939	
-0.062561	
-0.186157	
-0.227356	
-0.184631	
-0.108337	
-0.0976563	
-0.0854492	
0.00305176	
0.0488281	
-0.00457764	
-0.209045	
-0.291443	
-0.216675	
-0.18158	
-0.172424	
-0.161743	
-0.140381	
-0.137329	
-0.172424	
-0.187683	
-0.202942	
-0.202942	
-0.234985	
-0.231934	
-0.239563	
-0.25177	
-0.257874	
-0.273132	
-0.280762	
-0.292969	
-0.271606	
-0.238037	
-0.205994	
-0.172424	
-0.141907	
-0.189209	
-0.279236	
-0.390625	
-0.465393	
-0.431824	
-0.375366	
-0.366211	
-0.3479	
-0.328064	
-0.32196	
-0.318909	
-0.331116	
-0.343323	
-0.387573	
-0.40741	
-0.419617	
-0.43335	
-0.43335	
-0.45929	
-0.556946	
-0.515747	
-0.502014	
-0.523376	
-0.512695	
-0.482178	
-0.395203	
-0.379944	
-0.3479	
-0.352478	
-0.367737	
-0.514221	
-0.700378	
-0.744629	
-0.764465	
-0.637817	
-0.585938	
-0.544739	
-0.549316	
-0.57373	
-0.584412	
-0.610352	
-0.611877	
-0.617981	
-0.621033	
-0.630188	
-0.631714	
-0.646973	
-0.648499	
-0.646973	
-0.657654	
-0.689697	
-0.704956	
-0.709534	
-0.706482	
-0.714111	
-0.726318	
-0.717163	
-0.694275	
-0.648499	
-0.608826	
-0.616455	
-0.650024	
-0.746155	
-0.817871	
-0.854492	
-0.90332	
-0.901794	
-0.856018	
-0.811768	
-0.85907	
-0.872803	
-0.852966	
-0.849915	
-0.868225	
-0.878906	
-0.872803	
-0.880432	
-0.891113	
-0.909424	
-0.914001	
-0.918579	
-0.912476	
-0.917053	
-0.912476	
-0.900269	
-0.894165	
-0.883484	
-0.897217	
-0.921631	
-0.968933	
-0.98114	
-0.987244	
-1.01013	
-1.04828	
-1.0376	
-1.03607	
-0.991821	
-0.917053	
-0.949097	
-1.00861	
-1.02539	
-1.06506	
-1.13678	
-1.11847	
-1.12457	
-1.13373	
-1.13831	
-1.15051	
-1.15356	
-1.15814	
-1.13068	
-1.11389	
-1.08948	
-1.06506	
-1.0498	
-1.07117	
-1.08643	
-1.09863	
-1.1322	
-1.15662	
-1.17188	
-1.1673	
-1.18103	
-1.17188	
-1.13831	
-1.14899	
-1.20392	
-1.24817	
-1.28326	
-1.28784	
-1.26648	
-1.27869	
-1.27563	
-1.27716	
-1.26495	
-1.27869	
-1.28479	
-1.29852	
-1.30768	
-1.31531	
-1.31378	
-1.28021	
-1.26801	
-1.24817	
-1.2146	
-1.18713	
-1.19171	
-1.21613	
-1.24207	
-1.26801	
-1.32904	
-1.36719	
-1.4267	
-1.44958	
-1.43738	
-1.41449	
-1.41754	
-1.42975	
-1.43585	
-1.41449	
-1.39465	
-1.40686	
-1.40381	
-1.4328	
-1.40991	
-1.40839	
-1.41144	
-1.43738	
-1.46484	
-1.47095	
-1.44958	
-1.42365	
-1.40839	
-1.35498	
-1.33514	
-1.3504	
-1.39313	
-1.44348	
-1.46332	
-1.45874	
-1.38397	
-1.44348	
-1.47858	
-1.50604	
-1.55334	
-1.57776	
-1.54266	
-1.53656	
-1.52435	
-1.51825	
-1.5213	
-1.50757	
-1.5213	
-1.53656	
-1.56555	
-1.58081	
-1.57318	
-1.5274	
-1.42212	
-1.34277	
-1.34277	
-1.34277	
-1.44043	
-1.60065	
-1.64185	
-1.68457	
-1.61743	
-1.59149	
-1.58081	
-1.58234	
-1.57776	
-1.59912	
-1.59607	
-1.58997	
-1.58234	
-1.58997	
-1.59302	
-1.60522	
-1.60828	
-1.61285	
-1.61285	
-1.6098	
-1.60675	
-1.58997	
-1.57166	
-1.55182	
-1.54266	
-1.50299	
-1.51062	
-1.57166	
-1.61743	
-1.64642	
-1.64337	
-1.65558	
-1.6037	
-1.60828	
-1.58234	
-1.57776	
-1.60217	
-1.64795	
-1.63269	
-1.64032	
-1.62048	
-1.63116	
-1.64185	
-1.62659	
-1.63574	
-1.60675	
-1.59607	
-1.59454	
-1.60217	
-1.60065	
-1.60828	
-1.6037	
-1.59149	
-1.57623	
-1.57776	
-1.57776	
-1.53503	
-1.5152	
-1.58997	
-1.68915	
-1.7334	
-1.68915	
-1.67084	
-1.62201	
-1.6037	
-1.57318	
-1.58386	
-1.65253	
-1.67542	
-1.70746	
-1.71509	
-1.71967	
-1.68762	
-1.67999	
-1.68457	
-1.66321	
-1.67236	
-1.67389	
-1.65405	
-1.66473	
-1.66626	
-1.651	
-1.61133	
-1.60522	
-1.58997	
-1.57318	
-1.55792	
-1.64032	
-1.64032	
-1.64642	
-1.63574	
-1.62354	
-1.59912	
-1.56708	
-1.6037	
-1.65863	
-1.67389	
-1.66168	
-1.69525	
-1.71204	
-1.76849	
-1.75476	
-1.7395	
-1.71814	
-1.69067	
-1.66473	
-1.63422	
-1.6037	
-1.57928	
-1.55945	
-1.53809	
-1.53656	
-1.53046	
-1.57471	
-1.62659	
-1.63727	
-1.64032	
-1.63116	
-1.63422	
-1.71204	
-1.78833	
-1.76849	
-1.72577	
-1.74713	
-1.76239	
-1.76239	
-1.73035	
-1.67542	
-1.63574	
-1.59454	
-1.55029	
-1.55029	
-1.5686	
-1.57928	
-1.56097	
-1.56555	
-1.6037	
-1.72882	
-1.71661	
-1.62506	
-1.62506	
-1.651	
-1.61133	
-1.61285	
-1.61285	
-1.60522	
-1.61591	
-1.57166	
-1.53656	
-1.48926	
-1.46484	
-1.44501	
-1.45721	
-1.53961	
-1.63269	
-1.66168	
-1.6861	
-1.68762	
-1.75934	
-1.74408	
-1.67847	
-1.6449	
-1.62811	
-1.63116	
-1.62964	
-1.61133	
-1.62964	
-1.64642	
-1.67084	
-1.69525	
-1.72272	
-1.67084	
-1.64337	
-1.62964	
-1.63269	
-1.61591	
-1.61591	
-1.63422	
-1.63727	
-1.63269	
-1.63727	
-1.62048	
-1.58081	
-1.57166	
-1.5564	
-1.5625	
-1.54266	
-1.51062	
-1.47247	
-1.54419	
-1.54266	
-1.45264	
-1.44501	
-1.4389	
-1.48926	
-1.58386	
-1.60828	
-1.62201	
-1.71509	
-1.76239	
-1.80359	
-1.75934	
-1.6983	
-1.70288	
-1.69525	
-1.66321	
-1.63116	
-1.61285	
-1.59454	
-1.57776	
-1.56403	
-1.57166	
-1.56097	
-1.56403	
-1.56555	
-1.56097	
-1.51215	
-1.51978	
-1.50604	
-1.57318	
-1.61285	
-1.59302	
-1.56097	
-1.57471	
-1.6037	
-1.59912	
-1.61591	
-1.61591	
-1.62506	
-1.60065	
-1.6037	
-1.60828	
-1.60217	
-1.6098	
-1.59454	
-1.57928	
-1.56403	
-1.54877	
-1.55029	
-1.53961	
-1.5152	
-1.50452	
-1.46942	
-1.44806	
-1.46332	
-1.46942	
-1.45416	
-1.47552	
-1.45111	
-1.5274	
-1.56097	
-1.57776	
-1.5686	
-1.58539	
-1.62201	
-1.69067	
-1.70135	
-1.70746	
-1.65558	
-1.62506	
-1.62048	
-1.6037	
-1.59454	
-1.58386	
-1.60065	
-1.60217	
-1.59149	
-1.55029	
-1.50909	
-1.51672	
-1.52435	
-1.49841	
-1.48926	
-1.51672	
-1.45111	
-1.474	
-1.51215	
-1.54266	
-1.59149	
-1.66473	
-1.62811	
-1.60522	
-1.58844	
-1.62659	
-1.65253	
-1.65405	
-1.64795	
-1.62048	
-1.56708	
-1.51672	
-1.44653	
-1.43585	
-1.48621	
-1.53809	
-1.55182	
-1.54572	
-1.56097	
-1.54877	
-1.55182	
-1.51215	
-1.49536	
-1.49994	
-1.51215	
-1.48163	
-1.46332	
-1.54114	
-1.58234	
-1.62964	
-1.61133	
-1.54419	
-1.49994	
-1.5152	
-1.53198	
-1.53809	
-1.54114	
-1.54266	
-1.54114	
-1.55792	
-1.54724	
-1.54572	
-1.5686	
-1.56555	
-1.54114	
-1.48315	
