-1.94702	
-1.94244	
-1.94244	
-1.9455	
-1.95465	
-1.93481	
-1.9165	
-1.91193	
-1.9104	
-1.91498	
-1.9104	
-1.89514	
-1.89514	
-1.88141	
-1.87683	
-1.87988	
-1.89667	
-1.9043	
-1.90582	
-1.90735	
-1.90735	
-1.90735	
-1.90735	
-1.9104	
-1.91193	
-1.9165	
-1.9165	
-1.91498	
-1.9165	
-1.92261	
-1.92261	
-1.92261	
-1.92413	
-1.92413	
-1.92719	
-1.92871	
-1.93024	
-1.93176	
-1.93024	
-1.92871	
-1.93024	
-1.93329	
-1.93176	
-1.93176	
-1.93176	
-1.93024	
-1.93481	
-1.93176	
-1.92871	
-1.93176	
-1.92719	
-1.92566	
-1.92566	
-1.92566	
-1.92413	
-1.93024	
-1.92871	
-1.93176	
-1.92871	
-1.93634	
-1.93024	
-1.93176	
-1.93329	
-1.92871	
-1.92871	
-1.92719	
-1.93176	
-1.93176	
-1.93481	
-1.93481	
-1.93787	
-1.93329	
-1.93176	
-1.93787	
-1.93176	
-1.93329	
-1.94244	
-1.94702	
-1.9577	
-1.96533	
-1.96228	
-1.95618	
-1.95465	
-1.95007	
-1.94092	
-1.94397	
-1.94092	
-1.93024	
-1.91498	
-1.90582	
-1.89667	
-1.89972	
-1.91193	
-1.91956	
-1.92413	
-1.92871	
-1.93176	
-1.93481	
-1.92871	
-1.92261	
-1.91345	
-1.9104	
-1.90887	
-1.90277	
-1.9043	
-1.89972	
-1.89667	
-1.90735	
-1.91193	
-1.9104	
-1.91498	
-1.9165	
-1.91498	
-1.91193	
-1.91193	
-1.90887	
-1.9104	
-1.9104	
-1.91193	
-1.91803	
-1.93329	
-1.93481	
-1.93329	
-1.93481	
-1.93481	
-1.92871	
-1.91803	
-1.91498	
-1.9043	
-1.90582	
-1.89819	
-1.89972	
-1.90582	
-1.90277	
-1.90277	
-1.90125	
-1.90735	
-1.90735	
-1.9043	
-1.90582	
-1.9104	
-1.90887	
-1.9104	
-1.91345	
-1.9104	
-1.90887	
-1.92261	
-1.92871	
-1.93176	
-1.93787	
-1.94244	
-1.95007	
-1.95618	
-1.9577	
-1.9577	
-1.95465	
-1.94855	
-1.94702	
-1.93481	
-1.91345	
-1.89819	
-1.87683	
-1.87988	
-1.87988	
-1.89056	
-1.90125	
-1.90735	
-1.90277	
-1.89209	
-1.89514	
-1.90735	
-1.90582	
-1.9043	
-1.9043	
-1.9104	
-1.91193	
-1.9104	
-1.91345	
-1.90887	
-1.9104	
-1.91193	
-1.90582	
-1.90735	
-1.90125	
-1.89667	
-1.89362	
-1.89514	
-1.89514	
-1.89972	
-1.89972	
-1.90887	
-1.90735	
-1.90735	
-1.90582	
-1.90277	
-1.9043	
-1.90887	
-1.9104	
-1.9104	
-1.90735	
-1.9043	
-1.90887	
-1.90582	
-1.90582	
-1.90735	
-1.90887	
-1.90582	
-1.90582	
-1.90887	
-1.91193	
-1.9104	
-1.90735	
-1.90887	
-1.91345	
-1.91498	
-1.91345	
-1.9104	
-1.91193	
-1.91498	
-1.91345	
-1.91498	
-1.91345	
-1.9165	
-1.92413	
-1.92871	
-1.93481	
-1.93787	
-1.93634	
-1.93329	
-1.93024	
-1.92261	
-1.9165	
-1.90735	
-1.9043	
-1.89514	
-1.89667	
-1.89514	
-1.89209	
-1.89514	
-1.89056	
-1.89514	
-1.89819	
-1.90125	
-1.90735	
-1.90887	
-1.90277	
-1.92261	
-1.93329	
-1.93481	
-1.93329	
-1.92413	
-1.92413	
-1.91803	
-1.91345	
-1.91193	
-1.91498	
-1.90735	
-1.91345	
-1.92566	
-1.91803	
-1.90735	
-1.90582	
-1.9043	
-1.90125	
-1.89514	
-1.88141	
-1.88751	
-1.88751	
-1.89056	
-1.89362	
-1.9043	
-1.90582	
-1.90582	
-1.90582	
-1.9043	
-1.9043	
-1.90277	
-1.9043	
-1.9043	
-1.90735	
-1.90582	
-1.90887	
-1.90887	
-1.90735	
-1.9043	
-1.90735	
-1.9104	
-1.9043	
-1.91345	
-1.91498	
-1.9165	
-1.9165	
-1.91956	
-1.91803	
-1.91193	
-1.9104	
-1.91345	
-1.91193	
-1.90582	
-1.91345	
-1.90887	
-1.90735	
-1.9043	
-1.90735	
-1.90735	
-1.90582	
-1.90735	
-1.90582	
-1.9104	
-1.9104	
-1.9104	
-1.91193	
-1.9165	
-1.9165	
-1.91345	
-1.9104	
-1.91345	
-1.9165	
-1.91498	
-1.91956	
-1.92261	
-1.9165	
-1.9104	
-1.9043	
-1.90125	
-1.90125	
-1.9043	
-1.91193	
-1.91193	
-1.9104	
-1.9104	
-1.90735	
-1.90887	
-1.90582	
-1.90582	
-1.90887	
-1.9104	
-1.9104	
-1.9104	
-1.91193	
-1.91498	
-1.91803	
-1.91803	
-1.92719	
-1.92871	
-1.93024	
-1.93634	
-1.93481	
-1.93329	
-1.93024	
-1.92566	
-1.91956	
-1.91803	
-1.9104	
-1.90582	
-1.90735	
-1.9043	
-1.90125	
-1.90125	
-1.9043	
-1.89972	
-1.90125	
-1.90582	
-1.90735	
-1.90582	
-1.90887	
-1.9104	
-1.91193	
-1.91498	
-1.91498	
-1.9165	
-1.9165	
-1.9165	
-1.9165	
-1.91803	
-1.92566	
-1.93176	
-1.93787	
-1.9455	
-1.95007	
-1.94702	
-1.94702	
-1.9455	
-1.93634	
-1.93481	
-1.93176	
-1.93481	
-1.92719	
-1.91498	
-1.91498	
-1.91193	
-1.90582	
-1.90887	
-1.91956	
-1.92413	
-1.92566	
-1.92261	
-1.91803	
-1.91498	
-1.91498	
-1.91498	
-1.92261	
-1.92413	
-1.92261	
-1.9165	
-1.91803	
-1.92566	
-1.92871	
-1.93024	
-1.93329	
-1.93634	
-1.93481	
-1.93634	
-1.93481	
-1.93329	
-1.93176	
-1.93481	
-1.93634	
-1.93939	
-1.94092	
-1.93939	
-1.94244	
-1.94244	
-1.93939	
-1.93176	
-1.92871	
-1.92566	
-1.92719	
-1.92413	
-1.9455	
-1.94702	
-1.95313	
-1.95618	
-1.9577	
-1.94855	
-1.93787	
-1.92566	
-1.91498	
-1.91956	
-1.92413	
-1.93481	
-1.94244	
-1.93939	
-1.93176	
-1.92871	
-1.92871	
-1.93024	
-1.92871	
-1.93176	
-1.93481	
-1.93939	
-1.93787	
-1.93787	
-1.93481	
-1.92871	
-1.93024	
-1.93024	
-1.93176	
-1.93481	
-1.93634	
-1.93024	
-1.93024	
-1.93481	
-1.93481	
-1.93939	
-1.93939	
-1.93787	
-1.93787	
-1.94092	
-1.93939	
-1.93939	
-1.94092	
-1.93787	
-1.94244	
-1.94092	
-1.94092	
-1.93787	
-1.93939	
-1.93787	
-1.94244	
-1.94244	
-1.94397	
-1.94397	
-1.94397	
-1.94092	
-1.94244	
-1.94244	
-1.94244	
-1.94702	
-1.96075	
-1.96686	
-1.96991	
-1.97144	
-1.96991	
-1.96533	
-1.96686	
-1.96533	
-1.96381	
-1.96686	
-1.96075	
-1.95465	
-1.95618	
-1.93939	
-1.93329	
-1.92566	
-1.92719	
-1.92719	
-1.93939	
-1.93939	
-1.94702	
-1.94397	
-1.93787	
-1.94397	
-1.94855	
-1.9455	
-1.94702	
-1.94855	
-1.94244	
-1.94092	
-1.93939	
-1.93634	
-1.93634	
-1.93634	
-1.93939	
-1.94397	
-1.94092	
-1.94244	
-1.94092	
-1.94397	
-1.9455	
-1.94244	
-1.94855	
-1.94244	
-1.94397	
-1.94244	
-1.94244	
-1.94397	
-1.94397	
-1.94702	
-1.9455	
-1.94855	
-1.94702	
-1.94855	
-1.95007	
-1.94397	
-1.94702	
-1.94702	
-1.95313	
-1.95465	
-1.95313	
-1.95007	
-1.95618	
-1.95618	
-1.95007	
-1.95007	
-1.95618	
-1.94855	
-1.95465	
-1.95313	
-1.94702	
-1.94244	
-1.93329	
-1.93939	
-1.94092	
-1.94397	
-1.95465	
-1.9577	
-1.95618	
-1.95923	
-1.9577	
-1.9577	
-1.9577	
-1.95618	
-1.95923	
-1.95618	
-1.93939	
-1.93939	
-1.94244	
-1.9455	
-1.94702	
-1.9455	
-1.94397	
-1.94702	
-1.9455	
-1.94397	
-1.9455	
-1.95007	
-1.94702	
-1.9455	
-1.94702	
-1.94855	
-1.95313	
-1.95007	
-1.95465	
-1.9577	
-1.9577	
-1.95618	
-1.95313	
-1.95007	
-1.94702	
-1.94397	
-1.95313	
-1.95465	
-1.9577	
-1.95923	
-1.95923	
-1.96075	
-1.96381	
-1.95923	
-1.9577	
-1.95465	
-1.94702	
-1.94702	
-1.94702	
-1.94397	
-1.9455	
-1.94855	
-1.95618	
-1.9577	
-1.96228	
-1.97144	
-1.97449	
-1.96533	
-1.96838	
-1.97144	
-1.97144	
-1.96686	
-1.96838	
-1.96228	
-1.96075	
-1.95465	
-1.95465	
-1.94855	
-1.94244	
-1.93787	
-1.93024	
-1.93787	
-1.9455	
-1.94702	
-1.94855	
-1.94855	
-1.94702	
-1.94855	
-1.95313	
-1.95007	
-1.94702	
-1.94397	
-1.94397	
-1.94397	
-1.94702	
-1.94397	
-1.94702	
-1.94855	
-1.95465	
-1.95313	
-1.95465	
-1.95313	
-1.95465	
-1.95465	
-1.95007	
-1.95007	
-1.95465	
-1.95313	
-1.9577	
-1.95465	
-1.95313	
-1.95313	
-1.95007	
-1.9577	
-1.95618	
-1.95618	
-1.95465	
-1.95465	
-1.95465	
-1.95923	
-1.96381	
-1.96381	
-1.96228	
-1.96381	
-1.96838	
-1.96686	
-1.96686	
-1.96228	
-1.96686	
-1.96228	
-1.9577	
-1.94855	
-1.93939	
-1.94092	
-1.94855	
-1.95923	
-1.96075	
-1.96533	
-1.97144	
-1.96381	
-1.95313	
-1.9455	
-1.95313	
-1.95923	
-1.9577	
-1.9577	
-1.96228	
-1.96838	
-1.96533	
-1.96686	
-1.97144	
-1.97601	
-1.97449	
-1.97754	
-1.98517	
-1.98669	
-1.97296	
-1.97144	
-1.96228	
-1.95313	
-1.93939	
-1.93634	
-1.93787	
-1.94397	
-1.95313	
-1.96075	
-1.95465	
-1.95007	
-1.94855	
-1.95465	
-1.96075	
-1.95465	
-1.95313	
-1.94244	
-1.92871	
-1.93176	
-1.94397	
-1.94702	
-1.9455	
-1.94092	
-1.93939	
-1.94244	
-1.94702	
-1.94855	
-1.95313	
-1.95007	
-1.95007	
-1.95313	
-1.95465	
-1.95313	
-1.95313	
-1.95618	
-1.95313	
-1.95465	
-1.94855	
-1.95007	
-1.95007	
-1.95007	
-1.95465	
-1.95313	
-1.95313	
-1.95465	
-1.95465	
-1.95313	
-1.95465	
-1.95465	
-1.95465	
-1.95313	
-1.95465	
-1.95618	
-1.95465	
-1.95465	
-1.95007	
-1.95465	
-1.95313	
-1.95465	
-1.95313	
-1.95007	
-1.95465	
-1.95618	
-1.95618	
-1.9577	
-1.95618	
-1.95313	
-1.95465	
-1.95618	
-1.95465	
-1.95618	
-1.95313	
-1.9577	
-1.9577	
-1.9577	
-1.95465	
-1.94855	
-1.95313	
-1.9577	
-1.95007	
-1.95313	
-1.95618	
-1.95465	
-1.95465	
-1.95923	
-1.95923	
-1.95618	
-1.95313	
-1.94855	
-1.9455	
-1.94855	
-1.94397	
-1.94092	
-1.94092	
-1.94244	
-1.9577	
-1.96228	
-1.96228	
-1.96075	
-1.9577	
-1.95313	
-1.95465	
-1.95923	
-1.96228	
-1.96533	
-1.96838	
-1.97449	
-1.96838	
-1.96228	
-1.9577	
-1.96228	
-1.95618	
-1.95618	
-1.95465	
-1.95007	
-1.95313	
-1.94855	
-1.9455	
-1.94855	
-1.94397	
-1.93939	
-1.93481	
-1.94092	
-1.94244	
-1.94855	
-1.95007	
-1.94855	
-1.93787	
-1.94092	
-1.94092	
-1.9455	
-1.95465	
-1.94855	
-1.94702	
-1.94702	
-1.95313	
-1.95007	
-1.94855	
-1.95007	
-1.95313	
-1.94855	
-1.9455	
-1.9455	
-1.94702	
-1.94855	
-1.9577	
-1.94855	
-1.94397	
-1.94397	
-1.95465	
-1.9577	
-1.96228	
-1.96533	
-1.95923	
-1.95313	
-1.94092	
-1.93939	
-1.93024	
-1.92871	
-1.92566	
-1.93329	
-1.94092	
-1.94092	
-1.93787	
-1.93176	
-1.92566	
-1.93176	
-1.93634	
-1.93939	
-1.94092	
-1.94092	
-1.94244	
-1.94092	
-1.93939	
-1.93939	
-1.94702	
-1.9455	
-1.94855	
-1.95465	
-1.95465	
-1.95923	
-1.9577	
-1.96228	
-1.96228	
-1.95923	
-1.9577	
-1.95923	
-1.95313	
-1.95313	
-1.94855	
-1.94244	
-1.93939	
-1.93481	
-1.93634	
-1.94244	
-1.9455	
-1.94092	
-1.94702	
-1.95007	
-1.94855	
-1.93939	
-1.93787	
-1.94244	
-1.93939	
-1.94244	
-1.94244	
-1.9455	
-1.94244	
-1.93634	
-1.93329	
-1.93481	
-1.93024	
-1.93481	
-1.93939	
-1.94702	
-1.94397	
-1.93939	
-1.93787	
-1.93787	
-1.93024	
-1.92261	
-1.92719	
-1.93787	
-1.94397	
-1.9577	
-1.96381	
-1.9577	
-1.9577	
-1.95465	
-1.9577	
-1.95465	
-1.95007	
-1.94702	
-1.94855	
-1.94855	
-1.94244	
-1.93329	
-1.92413	
-1.92719	
-1.93787	
-1.9455	
-1.95313	
-1.94855	
-1.95618	
-1.95465	
-1.95007	
-1.93787	
-1.93634	
-1.93481	
-1.93176	
-1.92719	
-1.93024	
-1.93176	
-1.91803	
-1.92413	
-1.91803	
-1.93329	
-1.94702	
-1.95313	
-1.95465	
-1.94702	
-1.93939	
-1.93787	
-1.93481	
-1.93024	
-1.92719	
-1.92566	
-1.92871	
-1.93481	
-1.93787	
-1.93939	
-1.93481	
-1.93176	
-1.93481	
-1.93787	
-1.94092	
-1.93939	
-1.93787	
-1.94244	
-1.93939	
-1.94397	
-1.9455	
-1.94702	
-1.95007	
-1.95618	
-1.95923	
-1.9577	
-1.96381	
-1.96533	
-1.96686	
-1.96228	
-1.9577	
-1.9455	
-1.93329	
-1.93329	
-1.93787	
-1.92719	
-1.93176	
-1.93329	
-1.93176	
-1.93176	
-1.94092	
-1.93939	
-1.93481	
-1.94092	
-1.94092	
-1.94702	
-1.95007	
-1.95465	
-1.94855	
-1.94244	
-1.94397	
-1.9455	
-1.94702	
-1.9455	
-1.94397	
-1.9455	
-1.94397	
-1.94092	
-1.93939	
-1.93787	
-1.94092	
-1.94397	
-1.9455	
-1.94397	
-1.95007	
-1.9455	
-1.94397	
-1.94855	
-1.94702	
-1.95007	
-1.94702	
-1.94702	
-1.9455	
-1.95007	
-1.95313	
-1.95313	
-1.94702	
-1.94855	
-1.94397	
-1.94092	
-1.94397	
-1.9455	
-1.94702	
-1.94702	
-1.95007	
-1.95313	
-1.95007	
-1.95618	
-1.95618	
-1.95007	
-1.95465	
-1.95618	
-1.95465	
-1.9577	
-1.95007	
-1.94244	
-1.94244	
-1.9455	
-1.94397	
-1.9455	
-1.94397	
-1.93329	
-1.93329	
-1.93634	
-1.93787	
-1.93787	
-1.94702	
-1.94702	
-1.95313	
-1.95007	
-1.96075	
-1.97296	
-1.97906	
-1.98059	
-1.98059	
-1.98364	
-1.98059	
-1.97754	
-1.97144	
-1.96686	
-1.95923	
-1.95007	
-1.95618	
-1.95007	
-1.94244	
-1.94092	
-1.92871	
-1.91345	
-1.9165	
-1.91956	
-1.91498	
-1.91193	
-1.91803	
-1.91956	
-1.92719	
-1.93176	
-1.93481	
-1.93481	
-1.93329	
-1.93634	
-1.94244	
-1.94397	
-1.94092	
-1.9455	
-1.94702	
-1.95465	
-1.95618	
-1.95618	
-1.95465	
-1.95465	
-1.9577	
-1.95618	
-1.95465	
-1.94702	
-1.93939	
-1.93176	
-1.93329	
-1.93787	
-1.94244	
-1.94397	
-1.94702	
-1.94397	
-1.94702	
-1.94855	
-1.95313	
-1.94855	
-1.94397	
-1.94244	
-1.9455	
-1.94244	
-1.94397	
-1.9455	
-1.95618	
-1.95923	
-1.96381	
-1.96228	
-1.96228	
-1.96075	
-1.94702	
-1.94702	
-1.94244	
-1.93939	
-1.94092	
-1.94244	
-1.94244	
-1.93787	
-1.94092	
-1.94244	
-1.94397	
-1.94397	
-1.94244	
-1.9455	
-1.9455	
-1.94702	
-1.9455	
-1.94855	
-1.94855	
-1.9455	
-1.94702	
-1.95007	
-1.94855	
-1.95007	
-1.94855	
-1.94855	
-1.95313	
-1.94702	
-1.95007	
-1.94855	
-1.95007	
-1.95313	
-1.95618	
-1.95007	
-1.95923	
-1.96686	
-1.96686	
-1.96381	
-1.95923	
-1.95923	
-1.96381	
-1.96381	
-1.96228	
-1.95007	
-1.94702	
-1.94702	
-1.95007	
-1.95007	
-1.9455	
-1.95007	
-1.94855	
-1.9455	
-1.9455	
-1.94244	
-1.93939	
-1.94397	
-1.95007	
-1.95007	
-1.94855	
-1.95313	
-1.9455	
-1.94702	
-1.94244	
-1.94244	
-1.94855	
-1.95618	
-1.9577	
-1.96228	
-1.9577	
-1.95007	
-1.95313	
-1.95465	
-1.95465	
-1.9577	
-1.95618	
-1.95923	
-1.95923	
-1.95313	
-1.95313	
-1.95007	
-1.95465	
-1.95007	
-1.95465	
-1.95618	
-1.95618	
-1.95618	
-1.9577	
-1.95923	
-1.95923	
-1.9577	
-1.9577	
-1.95618	
-1.95618	
-1.95618	
-1.95618	
-1.95618	
-1.95618	
-1.9577	
-1.95618	
-1.9577	
-1.95465	
-1.9577	
-1.9577	
-1.95618	
-1.96228	
-1.96075	
-1.96228	
-1.95923	
-1.96228	
-1.96381	
-1.96381	
-1.96533	
-1.96381	
-1.96228	
-1.96533	
-1.96381	
-1.96838	
-1.97144	
-1.97296	
-1.96838	
-1.96686	
-1.96686	
-1.96991	
-1.97296	
-1.97449	
-1.96991	
-1.96991	
-1.96686	
-1.96838	
-1.97296	
-1.97144	
-1.96991	
-1.96991	
-1.97144	
-1.97296	
-1.97296	
-1.97754	
-1.97449	
-1.97449	
-1.97144	
-1.97449	
-1.97449	
-1.97601	
-1.97906	
-1.97449	
-1.97906	
-1.97754	
-1.97906	
-1.97754	
-1.98059	
-1.98059	
-1.97906	
-1.97906	
-1.98059	
-1.98059	
-1.97601	
-1.97754	
-1.97601	
-1.97601	
-1.97906	
-1.98059	
-1.97754	
-1.97906	
-1.98517	
-1.98059	
-1.98517	
-1.97906	
-1.97601	
-1.98517	
-1.98822	
-1.98669	
-1.98975	
-1.99585	
-2.00653	
-2.00958	
-2.01721	
-2.02484	
-2.02179	
-2.02789	
-2.03094	
-2.03094	
-2.03247	
-2.02789	
-2.01721	
-2.01874	
-2.00806	
-1.99127	
-1.98364	
-1.96533	
-1.94397	
-1.94397	
-1.95465	
-1.96381	
-1.95923	
-1.96381	
-1.96838	
-1.97296	
-1.97906	
-1.98059	
-1.98669	
-1.98364	
-1.98059	
-1.98364	
-1.98059	
-1.98364	
-1.98059	
-1.98669	
-1.9928	
-1.98517	
-1.98517	
-1.98517	
-1.98517	
-1.98669	
-1.98364	
-1.99432	
-1.99432	
-1.9928	
-1.99432	
-1.99585	
-1.9989	
-2.00348	
-2.00653	
-2.00806	
-2.00958	
-2.00653	
-2.005	
-2.01111	
-2.00806	
-2.005	
-2.00958	
-2.00806	
-2.005	
-2.00958	
-2.00806	
-2.01263	
-2.005	
-1.99585	
-1.99585	
-1.98975	
-1.98059	
-1.98517	
-1.98975	
-1.99738	
-2.00653	
-2.01111	
-2.01569	
-2.01569	
-2.01874	
-2.01569	
-2.00806	
-2.00653	
-2.00653	
-2.00806	
-2.005	
-2.00806	
-2.00806	
-2.00348	
-1.99432	
-1.99585	
-2.00043	
-2.00653	
-2.00653	
-2.00806	
-2.01263	
-2.01569	
-2.01111	
-2.01111	
-2.01263	
-2.00958	
-2.00958	
-2.00043	
-2.00195	
-2.00806	
-2.00806	
-2.005	
-2.00653	
-2.00806	
-2.00653	
-2.00043	
-2.00043	
-1.99585	
-1.99585	
-1.9989	
-1.99432	
-1.99432	
-1.99585	
-1.99738	
-2.00043	
-2.00195	
-2.00043	
-2.005	
-2.00348	
-2.005	
-2.00348	
-2.005	
-2.00195	
-2.00653	
-2.00348	
-2.00195	
-2.00348	
-2.00043	
-2.00348	
-2.00195	
-2.005	
-2.00348	
-2.00195	
-2.00348	
-2.00348	
-2.00348	
-2.00348	
-2.00043	
-2.00348	
-2.005	
-2.00195	
-2.00653	
-2.00653	
-2.00348	
-2.00653	
-2.00958	
-2.00806	
-1.9989	
-1.9989	
-1.99738	
-2.00348	
-2.00195	
-2.00348	
-2.00653	
-2.00348	
-1.9989	
-2.00043	
-2.00348	
-2.00348	
-2.00348	
-2.00195	
-2.00195	
-2.00195	
-2.00348	
-2.00195	
-2.00043	
-1.9989	
-2.00043	
-2.00348	
-2.00195	
-2.00043	
-2.00195	
-1.9989	
-2.00348	
-2.00348	
-2.00195	
-2.00653	
-2.00806	
-2.00958	
-2.00958	
-2.00958	
-2.00958	
-2.00806	
-2.00348	
-2.00653	
-2.00958	
-2.00958	
-2.00653	
-2.00653	
-2.01111	
-2.00806	
-2.00806	
-2.01111	
-2.00653	
-2.00653	
-2.00653	
-2.01111	
-2.00958	
-2.00806	
-2.00958	
-2.00653	
-2.005	
-2.00958	
-2.00806	
-2.01111	
-2.00806	
-2.00806	
-2.00958	
-2.00806	
-2.01569	
-2.01263	
-2.01263	
-2.01111	
-2.01111	
-2.00806	
-2.00958	
-2.00348	
-2.005	
-2.00958	
-2.01569	
-2.00806	
-2.01111	
-2.01263	
-2.01263	
-2.01569	
-2.01111	
-2.01111	
-2.00806	
-2.01111	
-2.00806	
-2.00806	
-2.005	
-2.00958	
-2.01263	
-2.01263	
-2.01111	
-2.01721	
-2.01721	
-2.00653	
-2.01569	
-2.02026	
-2.03247	
-2.03552	
-2.02942	
-2.02332	
-2.02332	
-2.01874	
-2.01721	
-2.00806	
-2.01263	
-2.01569	
-2.01263	
-2.00958	
-2.00958	
-2.00348	
-2.00043	
-2.00195	
-1.9989	
-1.9989	
-2.005	
-2.005	
-2.01111	
-2.01263	
-2.01721	
-2.01569	
-2.02026	
-2.02026	
-2.02179	
-2.01874	
-2.01874	
-2.01874	
-2.00958	
-2.01263	
-2.01111	
-2.00653	
-2.01874	
-2.03247	
-2.0401	
-2.04315	
-2.0401	
-2.0401	
-2.03094	
-2.02026	
-2.01721	
-2.00958	
-2.01874	
-2.02179	
-2.02942	
-2.02332	
-2.02179	
-2.01111	
-2.00653	
-2.00806	
-2.00958	
-2.01263	
-2.01721	
-2.01263	
-2.00806	
-2.00348	
-2.00653	
-2.01111	
-2.01111	
-2.01721	
-2.02484	
-2.02789	
-2.02942	
-2.03247	
-2.02789	
-2.02789	
-2.03552	
-2.03552	
-2.03247	
-2.02942	
-2.03094	
-2.02637	
-2.02484	
-2.01569	
-2.01263	
-2.00653	
-2.00348	
-2.00806	
-2.01111	
-2.01721	
-2.02484	
-2.02026	
-2.02179	
-2.01263	
-2.00348	
-1.9989	
-2.00958	
-2.01569	
-2.00653	
-2.01111	
-2.01111	
-2.00806	
-2.01263	
-2.01263	
-2.01263	
-2.005	
-2.01111	
-2.01569	
-2.01874	
-2.01721	
-2.01721	
-2.01874	
-2.01874	
-2.02484	
-2.01721	
-2.01721	
-2.02332	
-2.02179	
-2.02179	
-2.02332	
-2.02179	
-2.02026	
-2.02026	
-2.02637	
-2.02789	
-2.02637	
-2.02484	
-2.02332	
-2.02332	
-2.02179	
-2.01874	
-2.01721	
-2.01721	
-2.02026	
-2.01721	
-2.01721	
-2.01874	
-2.01874	
-2.02026	
-2.02179	
-2.02026	
-2.01721	
-2.01721	
-2.01721	
-2.01874	
-2.01111	
-2.01721	
-2.02332	
-2.01874	
-2.01569	
-2.01874	
-2.01721	
-2.01874	
-2.02026	
-2.02026	
-2.02179	
-2.02179	
-2.02484	
-2.02332	
-2.02484	
-2.02484	
-2.02332	
-2.02332	
-2.02637	
-2.02789	
-2.02637	
-2.02789	
-2.02942	
-2.02637	
-2.02637	
-2.02789	
-2.01874	
-2.01263	
-2.02179	
-2.02484	
-2.02332	
-2.02637	
-2.02332	
-2.02332	
-2.02179	
-2.02484	
-2.02332	
-2.02332	
-2.02179	
-2.02332	
-2.02789	
-2.03094	
-2.034	
-2.03705	
-2.02789	
-2.02179	
-2.02179	
-2.02332	
-2.02484	
-2.02637	
-2.02637	
-2.01263	
-2.01263	
-2.01721	
-2.01263	
-2.01569	
-2.01721	
-2.01721	
-2.01569	
-2.02026	
-2.01721	
-2.01874	
-2.01569	
-2.02332	
-2.02484	
-2.02484	
-2.02484	
-2.02637	
-2.02332	
-2.02179	
-2.02026	
-2.01874	
-2.01263	
-2.00806	
-2.01263	
-2.01874	
-2.02026	
-2.01874	
-2.02179	
-2.02332	
-2.01721	
-2.02179	
-2.02026	
-2.01569	
-2.01263	
-2.02942	
-2.034	
-2.05078	
-2.05536	
-2.05383	
-2.04773	
-2.0462	
-2.03552	
-2.02484	
-2.02026	
-2.01569	
-2.01874	
-2.02179	
-2.02026	
-2.02026	
-2.01111	
-2.00806	
-2.02026	
-2.02026	
-2.01721	
-2.00806	
-2.00348	
-2.00348	
-2.00043	
-2.00348	
-2.00653	
-2.00958	
-2.00958	
-2.00958	
-2.01111	
-2.00958	
-2.01111	
-2.01569	
-2.01874	
-2.01569	
-2.01874	
-2.01874	
-2.02026	
-2.01874	
-2.02179	
-2.02179	
-2.01721	
-2.01721	
-2.02026	
-2.02179	
-2.02026	
-2.02484	
-2.02942	
-2.02484	
-2.02179	
-2.02026	
-2.01874	
-2.02026	
-2.02179	
-2.02179	
-2.02026	
-2.01874	
-2.01111	
-2.01721	
-2.02026	
-2.01721	
-2.02026	
-2.01874	
-2.01569	
-2.01874	
-2.02026	
-2.01721	
-2.01721	
-2.01874	
-2.01874	
-2.01874	
-2.02026	
-2.02637	
-2.02484	
-2.02789	
-2.02637	
-2.02789	
-2.02942	
-2.02637	
-2.02179	
-2.01721	
-2.01874	
-2.01721	
-2.00806	
-2.01111	
-2.01721	
-2.01569	
-2.02026	
-2.02484	
-2.02332	
-2.02637	
-2.02026	
-2.01263	
-2.01111	
-2.00958	
-2.00806	
-2.00043	
-1.9989	
-2.005	
-2.00806	
-2.00958	
-2.00958	
-2.01263	
-2.01111	
-2.00958	
-2.00958	
-2.00958	
-2.00958	
-2.005	
-2.00348	
-1.9989	
-2.005	
-2.01111	
-2.01263	
-2.01263	
-2.00958	
-2.01263	
-2.01721	
-2.01569	
-2.01263	
-2.00958	
-2.00653	
-2.01569	
-2.01721	
-2.02179	
-2.02332	
-2.02484	
-2.02179	
-2.02332	
-2.02026	
-2.01721	
-2.01874	
-2.01569	
-2.01721	
-2.01721	
-2.01874	
-2.02332	
-2.02026	
-2.01721	
-2.01721	
-2.02026	
-2.02942	
-2.03857	
-2.03705	
-2.04315	
-2.0401	
-2.03705	
-2.02637	
-2.01874	
-2.01111	
-2.01263	
-2.00958	
-2.02179	
-2.03247	
-2.03552	
-2.03094	
-2.03094	
-2.02637	
-2.02484	
-2.02637	
-2.02484	
-2.01874	
-2.01569	
-2.01111	
-2.00348	
-2.005	
-1.9928	
-1.9928	
-1.9989	
-2.00653	
-2.01263	
-2.01111	
-2.01569	
-2.01721	
-2.02026	
-2.02179	
-2.02179	
-2.02332	
-2.02026	
-2.01874	
-2.00958	
-2.00653	
-2.00806	
-2.00958	
-2.00806	
-2.00958	
-2.01111	
-2.01263	
-2.01569	
-2.02026	
-2.01874	
-2.02026	
-2.01569	
-2.02026	
-2.02179	
-2.01874	
-2.01874	
-2.01874	
-2.01874	
-2.01569	
-2.01569	
-2.01569	
-2.01721	
-2.01263	
-2.01721	
-2.02026	
-2.02026	
-2.01874	
-2.02332	
-2.02789	
-2.03094	
-2.034	
-2.034	
-2.034	
-2.02637	
-2.02637	
-2.02484	
-2.02484	
-2.01263	
-2.00195	
-1.99432	
-1.9989	
-2.00958	
-2.02332	
-2.03247	
-2.02789	
-2.03094	
-2.03247	
-2.03094	
-2.034	
-2.03094	
-2.02637	
-2.02332	
-2.03247	
-2.03552	
-2.03857	
-2.03857	
-2.034	
-2.02942	
-2.01874	
-2.01263	
-2.01111	
-2.01263	
-2.01569	
-2.02332	
-2.02332	
-2.02026	
-2.01111	
-2.00806	
-2.00806	
-2.00653	
-2.005	
-2.00806	
-2.00958	
-2.01874	
-2.01263	
-2.01721	
-2.01569	
-2.01569	
-2.01569	
-2.01569	
-2.01569	
-2.01263	
-2.01569	
-2.01569	
-2.02179	
-2.01721	
-2.01874	
-2.01874	
-2.01569	
-2.01569	
-2.01874	
-2.01874	
-2.02026	
-2.01874	
-2.02789	
-2.02789	
-2.02789	
-2.02942	
-2.02942	
-2.02789	
-2.02484	
-2.02637	
-2.02789	
-2.02484	
-2.02179	
-2.02332	
-2.02637	
-2.02026	
-2.00958	
-2.01263	
-2.01874	
-2.01721	
-2.02332	
-2.02179	
-2.02179	
-2.02484	
-2.02637	
-2.02942	
-2.03094	
-2.034	
-2.02637	
-2.02484	
-2.03094	
-2.03552	
-2.03857	
-2.04163	
-2.0401	
-2.03857	
-2.034	
-2.034	
-2.03247	
-2.02789	
-2.02942	
-2.02484	
-2.02942	
-2.02789	
-2.03094	
-2.03094	
-2.03247	
-2.02942	
-2.034	
-2.03552	
-2.034	
-2.03857	
-2.03705	
-2.034	
-2.02332	
-2.01263	
-2.00958	
-2.01721	
-2.02179	
-2.02179	
-2.02179	
-2.02484	
-2.03552	
-2.03705	
-2.03247	
-2.034	
-2.02942	
-2.03247	
-2.02942	
-2.03247	
-2.03552	
-2.03552	
-2.03705	
-2.03094	
-2.02637	
-2.02332	
-2.02179	
-2.03247	
-2.03552	
-2.03094	
-2.03552	
-2.0401	
-2.034	
-2.02484	
-2.02637	
-2.01569	
-2.01263	
-2.01111	
-2.02332	
-2.034	
-2.03552	
-2.03247	
-2.03094	
-2.034	
-2.034	
-2.03247	
-2.034	
-2.034	
-2.03094	
-2.03094	
-2.034	
-2.03247	
-2.03094	
-2.034	
-2.034	
-2.034	
-2.034	
-2.03247	
-2.02332	
-2.01874	
-2.02332	
-2.02637	
-2.02637	
-2.02789	
-2.02942	
-2.02484	
-2.02637	
-2.02942	
-2.03094	
-2.02789	
-2.02942	
-2.02942	
-2.02942	
-2.02789	
-2.02179	
-2.02026	
-2.01874	
-2.02484	
-2.02789	
-2.034	
-2.0401	
-2.0462	
-2.0401	
-2.03094	
-2.02942	
-2.02942	
-2.02942	
-2.02942	
-2.03247	
-2.03705	
-2.034	
-2.03094	
-2.02942	
-2.02026	
-2.02179	
-2.02332	
-2.02332	
-2.02026	
-2.02026	
-2.02179	
-2.02026	
-2.01569	
-2.01721	
-2.02179	
-2.02179	
-2.02179	
-2.02484	
-2.02637	
-2.02484	
-2.02942	
-2.03705	
-2.03857	
-2.03705	
-2.034	
-2.034	
-2.03094	
-2.02942	
-2.02484	
-2.02332	
-2.02179	
-2.02179	
-2.01263	
-2.01874	
-2.02637	
-2.02789	
-2.02789	
-2.02789	
-2.02789	
-2.01874	
-2.01721	
-2.01569	
-2.01721	
-2.01111	
-2.00958	
-2.01111	
-2.00653	
-2.01263	
-2.03247	
-2.03705	
-2.03552	
-2.03247	
-2.02484	
-2.02637	
-2.02179	
-2.01721	
-2.00958	
-2.01263	
-2.02026	
-2.02484	
-2.02484	
-2.01721	
-2.01569	
-2.01569	
-2.00806	
-2.00195	
-2.00195	
-2.00195	
-2.00806	
-2.01111	
-2.01263	
-2.01874	
-2.02332	
-2.02179	
-2.02026	
-2.02332	
-2.02026	
-2.01874	
-2.01263	
-2.01111	
-2.00806	
-2.01111	
-2.01721	
-2.01569	
-2.01721	
-2.01263	
-2.01263	
-2.01874	
-2.02179	
-2.02332	
-2.02179	
-2.02179	
-2.02179	
-2.02026	
-2.01721	
-2.01263	
-2.00348	
-2.005	
-2.01721	
-2.01721	
-2.01111	
-2.01721	
-2.01874	
-2.02332	
-2.02026	
-2.02332	
-2.02179	
-2.01874	
-2.02332	
-2.02332	
-2.02332	
-2.02484	
-2.01874	
-2.01111	
-2.01569	
-2.00958	
-2.00958	
-2.00348	
-2.005	
-2.00195	
-2.00348	
-2.01721	
-2.02179	
-2.00653	
-2.00043	
-1.99432	
-1.99585	
-1.9989	
-1.99432	
-1.99738	
-1.9989	
-2.00653	
-2.00806	
-2.01569	
-2.01874	
-2.01721	
-2.02026	
-2.02179	
-2.02179	
-2.02484	
-2.02179	
-2.02026	
-2.01721	
-2.01111	
-2.01111	
-2.01111	
-2.00806	
-1.9989	
-2.00195	
-2.00806	
-2.005	
-2.00958	
-2.00653	
-2.00958	
-2.01721	
-2.02026	
-2.01569	
-2.01263	
-1.9989	
-2.00348	
-2.01874	
-2.02332	
-2.01721	
-2.01874	
-2.01569	
-2.01111	
-2.00806	
-2.00348	
-1.9989	
-1.9989	
-1.99738	
-2.005	
-2.00958	
-1.99585	
-1.9928	
-1.99432	
-1.99585	
-2.00043	
-2.005	
-2.005	
-2.00195	
-2.00043	
-2.00043	
-2.00348	
-2.00043	
-1.9989	
-2.00043	
-2.00348	
-2.00806	
-2.005	
-2.005	
-2.00195	
-2.00653	
-2.005	
-2.00653	
-2.00806	
-2.00958	
-2.00653	
-2.01111	
-2.00806	
-2.00653	
-2.005	
-2.00195	
-2.00348	
-2.005	
-2.00653	
-1.99738	
-2.00195	
-2.00195	
-1.9989	
-2.00806	
-2.00653	
-2.005	
-2.00348	
-2.005	
-2.005	
-2.00806	
-2.00653	
-2.00653	
-2.005	
-2.005	
-2.01721	
-2.02637	
-2.02942	
-2.02484	
-2.02332	
-2.01721	
-2.01874	
-2.00958	
-2.00653	
-2.00806	
-2.00653	
-2.00195	
-2.00195	
-1.99738	
-1.99738	
-1.9928	
-1.98975	
-1.98822	
-1.98059	
-1.98517	
-1.99127	
-1.99585	
-1.9989	
-2.00348	
-2.00348	
-2.00043	
-2.00195	
-2.00348	
-2.00348	
-1.9989	
-2.00348	
-2.00806	
-2.01111	
-2.01111	
-2.00958	
-2.00653	
-2.005	
-2.00653	
-2.00348	
-1.99738	
-1.9989	
-2.005	
-2.01721	
-2.02179	
-2.02484	
-2.02484	
-2.02484	
-2.02179	
-2.01569	
-2.00653	
-2.00653	
-2.00348	
-2.00195	
-2.01111	
-2.01111	
-2.00806	
-2.00348	
-1.9928	
-1.99432	
-2.00043	
-2.00195	
-2.00958	
-2.01111	
-2.01569	
-2.00348	
-2.005	
-2.01569	
-2.02179	
-2.02179	
-2.02637	
-2.02484	
-2.02637	
-2.02332	
-2.02484	
-2.02484	
-2.02179	
-2.01569	
-2.02332	
-2.02026	
-2.02026	
-2.02026	
-2.02179	
-2.02026	
-2.02332	
-2.02637	
-2.02332	
-2.02789	
-2.03552	
-2.03857	
-2.0401	
-2.04315	
-2.0462	
-2.04315	
-2.0462	
-2.04315	
-2.0462	
-2.04163	
-2.03857	
-2.02789	
-2.01874	
-2.01569	
-2.01874	
-2.00958	
-2.01111	
-2.01874	
-2.02332	
-2.02789	
-2.02637	
-2.02637	
-2.02789	
-2.02789	
-2.02942	
-2.03094	
-2.03247	
-2.03094	
-2.02942	
-2.034	
-2.03552	
-2.03094	
-2.02789	
-2.02789	
-2.03094	
-2.03094	
-2.034	
-2.03705	
-2.03705	
-2.03857	
-2.0462	
-2.05383	
-2.05383	
-2.05536	
-2.04773	
-2.04773	
-2.0401	
-2.03705	
-2.03705	
-2.04163	
-2.0401	
-2.03552	
-2.02637	
-2.03247	
-2.03857	
-2.02789	
-2.02942	
-2.03247	
-2.02789	
-2.02179	
-2.02637	
-2.03247	
-2.03094	
-2.02637	
-2.02637	
-2.02637	
-2.02332	
-2.02332	
-2.02789	
-2.03247	
-2.03247	
-2.034	
-2.03705	
-2.04163	
-2.04315	
-2.03857	
-2.03552	
-2.02942	
-2.02942	
-2.02332	
-2.02484	
-2.02179	
-2.02484	
-2.02484	
-2.02332	
-2.02026	
-2.02179	
-2.02026	
-2.01721	
-2.01569	
-2.01874	
-2.01874	
-2.01874	
-2.02026	
-2.01721	
-2.02026	
-2.01569	
-2.01874	
-2.01874	
-2.02332	
-2.02332	
-2.02484	
-2.02942	
-2.02637	
-2.02637	
-2.03857	
-2.05078	
-2.04926	
-2.04926	
-2.04315	
-2.03552	
-2.03094	
-2.02332	
-2.02332	
-2.01874	
-2.01874	
-2.02179	
-2.01569	
-2.00653	
-2.00806	
-2.00806	
-2.01721	
-2.02026	
-2.02332	
-2.02026	
-2.01721	
-2.02179	
-2.01874	
-2.01721	
-2.01874	
-2.01721	
-2.01874	
-2.02026	
-2.02179	
-2.02026	
-2.02332	
-2.02484	
-2.02484	
-2.02637	
-2.02332	
-2.02789	
-2.03094	
-2.03247	
-2.03094	
-2.02179	
-2.01569	
-2.01874	
-2.02332	
-2.02332	
-2.02026	
-2.02332	
-2.01874	
-2.02484	
-2.02637	
-2.02484	
-2.02637	
-2.02332	
-2.01874	
-2.01721	
-2.01111	
-2.01721	
-2.01263	
-2.02332	
-2.02332	
-2.02484	
-2.02332	
-2.02484	
-2.02637	
-2.02484	
-2.02942	
-2.02942	
-2.03247	
-2.02942	
-2.03552	
-2.034	
-2.03857	
-2.03857	
-2.034	
-2.03705	
-2.03705	
-2.0401	
-2.03552	
-2.03094	
-2.02332	
-2.02789	
-2.03705	
-2.0401	
-2.0401	
-2.0401	
-2.04163	
-2.0462	
-2.04315	
-2.0401	
-2.03857	
-2.02484	
-2.01569	
-2.00958	
-2.00653	
-2.00653	
-2.01263	
-2.00958	
-2.00806	
-2.00958	
-2.01569	
-2.01874	
-2.01569	
-2.01569	
-2.01874	
-2.02179	
-2.02179	
-2.02637	
-2.02484	
-2.03247	
-2.034	
-2.03705	
-2.0401	
-2.0401	
-2.03705	
-2.03552	
-2.02942	
-2.02637	
-2.03857	
-2.0462	
-2.04163	
-2.03857	
-2.034	
-2.03247	
-2.02789	
-2.02179	
-2.01263	
-2.01111	
-2.01874	
-2.02789	
-2.02942	
-2.03094	
-2.02179	
-2.01721	
-2.01721	
-2.02026	
-2.02026	
-2.02637	
-2.02942	
-2.034	
-2.034	
-2.03247	
-2.02942	
-2.02789	
-2.02942	
-2.02789	
-2.02789	
-2.02942	
-2.02942	
-2.034	
-2.0401	
-2.04163	
-2.0401	
-2.05078	
-2.05688	
-2.05536	
-2.05383	
-2.04926	
-2.0462	
-2.04163	
-2.04163	
-2.0401	
-2.03552	
-2.03552	
-2.03094	
-2.02637	
-2.02484	
-2.01874	
-2.01111	
-2.01721	
-2.01721	
-2.02179	
-2.02484	
-2.02942	
-2.03552	
-2.03857	
-2.04163	
-2.04315	
-2.04315	
-2.0401	
-2.03552	
-2.03857	
-2.03094	
-2.02789	
-2.02332	
-2.02179	
-2.02179	
-2.02637	
-2.03247	
-2.03247	
-2.03552	
-2.0401	
-2.03705	
-2.03857	
-2.04315	
-2.0462	
-2.04773	
-2.04315	
-2.0462	
-2.03705	
-2.0401	
-2.03857	
-2.04773	
-2.04926	
-2.04926	
-2.04926	
-2.05078	
-2.04773	
-2.0401	
-2.0401	
-2.034	
-2.03247	
-2.02637	
-2.01874	
-2.00958	
-2.01569	
-2.01721	
-2.02026	
-2.02637	
-2.02789	
-2.03094	
-2.02789	
-2.02484	
-2.02179	
-2.02789	
-2.02484	
-2.02332	
-2.034	
-2.034	
-2.034	
-2.04926	
-2.05536	
-2.05688	
-2.05536	
-2.05383	
-2.04315	
-2.034	
-2.02942	
-2.02026	
-2.01721	
-2.01263	
-2.02484	
-2.02942	
-2.02942	
-2.02637	
-2.02789	
-2.02789	
-2.02942	
-2.03705	
-2.03552	
-2.034	
-2.034	
-2.03247	
-2.03094	
-2.02789	
-2.02637	
-2.03094	
-2.034	
-2.03705	
-2.0401	
-2.04315	
-2.0462	
-2.04163	
-2.04163	
-2.0462	
-2.04315	
-2.0462	
-2.04163	
-2.03857	
-2.03705	
-2.03705	
-2.03552	
-2.03857	
-2.03857	
-2.03552	
-2.03705	
-2.034	
-2.034	
-2.03705	
-2.03552	
-2.02789	
-2.02789	
-2.03857	
-2.04773	
-2.05231	
-2.04926	
-2.04163	
-2.0462	
-2.04315	
-2.0401	
-2.0401	
-2.0462	
-2.04315	
-2.04163	
-2.0401	
-2.03705	
-2.03857	
-2.0401	
-2.03247	
-2.02942	
-2.034	
-2.03705	
-2.02637	
-2.02942	
-2.03552	
-2.0401	
-2.03857	
-2.03705	
-2.03552	
-2.03552	
-2.034	
-2.03247	
-2.02637	
-2.02026	
-2.01721	
-2.01874	
-2.01874	
-2.02484	
-2.02789	
-2.02942	
-2.02942	
-2.02942	
-2.02789	
-2.03094	
-2.03247	
-2.02789	
-2.02332	
-2.02637	
-2.03247	
-2.03094	
-2.03552	
-2.03705	
-2.03705	
-2.03857	
-2.0401	
-2.03705	
-2.03247	
-2.03094	
-2.03094	
-2.03094	
-2.03552	
-2.03247	
-2.03552	
-2.03247	
-2.03857	
-2.03552	
-2.03705	
-2.03705	
-2.04163	
-2.03857	
-2.03857	
-2.04315	
-2.0462	
-2.05688	
-2.06909	
-2.06909	
-2.06146	
-2.05383	
-2.04315	
-2.03705	
-2.02637	
-2.02332	
-2.02789	
-2.02637	
-2.034	
-2.03552	
-2.03094	
-2.04163	
-2.04773	
-2.04926	
-2.05383	
-2.05231	
-2.05078	
-2.04773	
-2.04315	
-2.03552	
-2.03552	
-2.03857	
-2.04163	
-2.0401	
-2.05231	
-2.05078	
-2.05383	
-2.05078	
-2.04773	
-2.04773	
-2.0401	
-2.0401	
-2.03552	
-2.03705	
-2.03552	
-2.03705	
-2.0401	
-2.04163	
-2.034	
-2.034	
-2.03705	
-2.03552	
-2.0401	
-2.03857	
-2.0401	
-2.03857	
-2.03857	
-2.034	
-2.034	
-2.0401	
-2.03857	
-2.04163	
-2.0401	
-2.0462	
-2.04926	
-2.04773	
-2.04315	
-2.0401	
-2.03705	
-2.03857	
-2.03857	
-2.0401	
-2.0401	
-2.03705	
-2.03857	
-2.04163	
-2.04315	
-2.0401	
-2.04163	
-2.0401	
-2.04315	
-2.04315	
-2.0462	
-2.04163	
-2.04163	
-2.04315	
-2.0401	
-2.0462	
-2.0462	
-2.0462	
-2.04163	
-2.04773	
-2.0462	
-2.04773	
-2.0462	
-2.04163	
-2.04163	
-2.04773	
-2.0462	
-2.0462	
-2.0462	
-2.04315	
-2.0462	
-2.0462	
-2.0462	
-2.04773	
-2.0462	
-2.0401	
-2.0401	
-2.0462	
-2.04315	
-2.0462	
-2.0462	
-2.04773	
-2.0462	
-2.04773	
-2.04773	
-2.04926	
-2.04315	
-2.04926	
-2.05078	
-2.05078	
-2.04926	
-2.04315	
-2.04926	
-2.04773	
-2.04773	
-2.04926	
-2.05383	
-2.05078	
-2.05231	
-2.05231	
-2.05231	
-2.05078	
-2.04926	
-2.05078	
-2.04926	
-2.04926	
-2.04926	
-2.05231	
-2.05078	
-2.05231	
-2.05078	
-2.05231	
-2.05078	
-2.05231	
-2.05078	
-2.05688	
-2.06757	
-2.07367	
-2.08588	
-2.10114	
-2.11029	
-2.11639	
-2.11487	
-2.10876	
-2.09961	
-2.09045	
-2.0813	
-2.06757	
-2.05078	
-2.0401	
-2.03552	
-2.02179	
-1.99432	
-1.97906	
-1.98364	
-1.99585	
-2.00653	
-2.01263	
-2.02179	
-2.034	
-2.04773	
-2.05383	
-2.06146	
-2.06299	
-2.06146	
-2.05383	
-2.04315	
-2.03552	
-2.02789	
-2.02332	
-2.02637	
-2.034	
-2.0462	
-2.04163	
-2.03705	
-2.03705	
-2.03857	
-2.04163	
-2.03705	
-2.04163	
-2.0401	
-2.03705	
-2.04315	
-2.03857	
-2.03857	
-2.0401	
-2.0462	
-2.03857	
-2.03857	
-2.04315	
-2.0401	
-2.04773	
-2.04926	
-2.05078	
-2.0462	
-2.04315	
-2.04315	
-2.0462	
-2.03552	
-2.03857	
-2.04163	
-2.0462	
-2.04926	
-2.05383	
-2.04926	
-2.05536	
-2.05536	
-2.05536	
-2.05383	
-2.05383	
-2.05231	
-2.05078	
-2.05078	
-2.04773	
-2.0462	
-2.05231	
-2.05536	
-2.04926	
-2.04163	
-2.04773	
-2.05536	
-2.05536	
-2.05383	
-2.05383	
-2.05688	
-2.06604	
-2.06604	
-2.06604	
-2.07367	
-2.07367	
-2.07214	
-2.05994	
-2.04926	
-2.04163	
-2.03705	
-2.05078	
-2.05078	
-2.0462	
-2.04315	
-2.03705	
-2.034	
-2.034	
-2.034	
-2.03705	
-2.03247	
-2.02637	
-2.02942	
-2.02942	
-2.02789	
-2.02484	
-2.02179	
-2.02789	
-2.02789	
-2.034	
-2.03094	
-2.03552	
-2.03705	
-2.03705	
-2.0401	
-2.0401	
-2.0401	
-2.0401	
-2.04163	
-2.04163	
-2.04163	
-2.04163	
-2.04163	
-2.0401	
-2.04163	
-2.0462	
-2.05078	
-2.04926	
-2.0462	
-2.0462	
-2.04315	
-2.04163	
-2.04163	
-2.0401	
-2.03857	
-2.04163	
-2.03857	
-2.04315	
-2.04315	
-2.04315	
-2.04315	
-2.04926	
-2.05536	
-2.04773	
-2.05231	
-2.05078	
-2.05231	
-2.05078	
-2.05231	
-2.05078	
-2.04315	
-2.05383	
-2.06451	
-2.06757	
-2.06604	
-2.05994	
-2.05383	
-2.05383	
-2.0462	
-2.03857	
-2.03857	
-2.03552	
-2.0401	
-2.04773	
-2.04773	
-2.04926	
-2.03857	
-2.03857	
-2.03857	
-2.04163	
-2.04163	
-2.0401	
-2.0401	
-2.0401	
-2.0462	
-2.03857	
-2.04163	
-2.0401	
-2.05383	
-2.05688	
-2.05536	
-2.05536	
-2.05536	
-2.05536	
-2.05383	
-2.05536	
-2.04926	
-2.03705	
-2.02942	
-2.02789	
-2.034	
-2.03705	
-2.03552	
-2.02637	
-2.02637	
-2.02026	
-2.01874	
-2.00653	
-2.01569	
-2.02026	
-2.02484	
-2.02637	
-2.02942	
-2.03552	
-2.03857	
-2.04163	
-2.03857	
-2.04163	
-2.04315	
-2.04773	
-2.04163	
-2.0462	
-2.0462	
-2.04163	
-2.03552	
-2.03705	
-2.03705	
-2.03247	
-2.03247	
-2.03094	
-2.034	
-2.03094	
-2.034	
-2.03552	
-2.03705	
-2.03552	
-2.03705	
-2.03552	
-2.03857	
-2.04163	
-2.03857	
-2.04163	
-2.0401	
-2.0401	
-2.0401	
-2.03857	
-2.04315	
-2.03247	
-2.03247	
-2.0401	
-2.0401	
-2.04315	
-2.04163	
-2.0401	
-2.0401	
-2.04926	
-2.05383	
-2.05536	
-2.05231	
-2.04926	
-2.04315	
-2.03552	
-2.03857	
-2.04315	
-2.04315	
-2.04926	
-2.0401	
-2.03705	
-2.034	
-2.02637	
-2.02637	
-2.03247	
-2.02637	
-2.02484	
-2.02637	
-2.02942	
-2.02942	
-2.034	
-2.03552	
-2.03857	
-2.03705	
-2.034	
-2.03705	
-2.03857	
-2.04163	
-2.0462	
-2.04163	
-2.04773	
-2.04773	
-2.05231	
-2.04773	
-2.05688	
-2.06146	
-2.06909	
-2.06299	
-2.05841	
-2.05078	
-2.0401	
-2.03705	
-2.02637	
-2.02789	
-2.03247	
-2.03094	
-2.0401	
-2.04315	
-2.03094	
-2.034	
-2.03705	
-2.04163	
-2.04315	
-2.04163	
-2.04163	
-2.04315	
-2.04315	
-2.04163	
-2.04315	
-2.03705	
-2.03705	
-2.03705	
-2.03705	
-2.03552	
-2.03552	
-2.03094	
-2.03247	
-2.03705	
-2.03857	
-2.03857	
-2.03705	
-2.0401	
-2.0401	
-2.04163	
-2.03705	
-2.03705	
-2.03857	
-2.03705	
-2.03705	
-2.0401	
-2.04926	
-2.0401	
-2.03857	
-2.04315	
-2.04315	
-2.0462	
-2.0462	
-2.0462	
-2.04315	
-2.04315	
-2.04163	
-2.04315	
-2.04315	
-2.0401	
-2.03857	
-2.04773	
-2.04315	
-2.0401	
-2.02789	
-2.03094	
-2.02942	
-2.03552	
-2.03857	
-2.03857	
-2.04163	
-2.04163	
-2.0462	
-2.05231	
-2.05231	
-2.05536	
-2.06604	
-2.06604	
-2.07062	
-2.06451	
-2.06757	
-2.05841	
-2.05231	
-2.0401	
-2.03857	
-2.04163	
-2.03705	
-2.02332	
-2.02026	
-2.03552	
-2.04163	
-2.04926	
-2.05994	
-2.05688	
-2.05841	
-2.05688	
-2.05688	
-2.05536	
-2.0462	
-2.04315	
-2.0401	
-2.03857	
-2.0401	
-2.03705	
-2.03705	
-2.03247	
-2.03552	
-2.03705	
-2.03857	
-2.034	
-2.03552	
-2.03247	
-2.02942	
-2.03094	
-2.03552	
-2.03705	
-2.03247	
-2.034	
-2.03857	
-2.03857	
-2.0401	
-2.0401	
-2.05688	
-2.06146	
-2.06757	
-2.06604	
-2.06757	
-2.05841	
-2.05536	
-2.0462	
-2.0401	
-2.03857	
-2.03552	
-2.03705	
-2.04315	
-2.0401	
-2.03552	
-2.03705	
-2.04315	
-2.04315	
-2.03857	
-2.04315	
-2.0462	
-2.04926	
-2.05383	
-2.05536	
-2.05383	
-2.05231	
-2.05994	
-2.05994	
-2.05688	
-2.05231	
-2.05383	
-2.05078	
-2.05536	
-2.05231	
-2.05078	
-2.0462	
-2.04163	
-2.04163	
-2.04163	
-2.04163	
-2.03552	
-2.034	
-2.03857	
-2.03857	
-2.03247	
-2.0401	
-2.05231	
-2.05688	
-2.06146	
-2.06451	
-2.06451	
-2.06757	
-2.06451	
-2.05994	
-2.06146	
-2.05383	
-2.05383	
-2.0401	
-2.03705	
-2.03247	
-2.03705	
-2.02942	
-2.02637	
-2.03094	
-2.034	
-2.03857	
-2.04315	
-2.05078	
-2.05231	
-2.05994	
-2.06146	
-2.06146	
-2.06909	
-2.06299	
-2.06451	
-2.06299	
-2.05994	
-2.06146	
-2.05536	
-2.05383	
-2.05231	
-2.04163	
-2.03705	
-2.03705	
-2.034	
-2.03094	
-2.02942	
-2.02637	
-2.02179	
-2.02484	
-2.03552	
-2.03857	
-2.034	
-2.034	
-2.03857	
-2.0401	
-2.04315	
-2.04163	
-2.04773	
-2.04773	
-2.04926	
-2.04926	
-2.05078	
-2.0462	
-2.0401	
-2.03705	
-2.0401	
-2.05994	
-2.06451	
-2.06604	
-2.06757	
-2.05688	
-2.04773	
-2.04315	
-2.03094	
-2.03247	
-2.03552	
-2.034	
-2.03705	
-2.04315	
-2.03094	
-2.03094	
-2.02789	
-2.02942	
-2.03094	
-2.02942	
-2.03094	
-2.03705	
-2.034	
-2.03247	
-2.03552	
-2.03857	
-2.04163	
-2.03857	
-2.0401	
-2.0401	
-2.04315	
-2.0462	
-2.0462	
-2.0462	
-2.04926	
-2.05078	
-2.05688	
-2.05841	
-2.05688	
-2.04926	
-2.03705	
-2.02637	
-2.02484	
-2.03094	
-2.03247	
-2.03705	
-2.034	
-2.03094	
-2.03094	
-2.03247	
-2.03552	
-2.03705	
-2.04163	
-2.04315	
-2.0462	
-2.0462	
-2.04773	
-2.05078	
-2.06604	
-2.07062	
-2.07672	
-2.0813	
-2.08435	
-2.0813	
-2.06451	
-2.04926	
-2.02942	
-2.02637	
-2.02484	
-2.02942	
-2.02484	
-2.01874	
-2.02026	
-2.01721	
-2.01263	
-2.00806	
-2.01263	
-2.01721	
-2.02026	
-2.02484	
-2.03094	
-2.02942	
-2.034	
-2.03705	
-2.04773	
-2.04773	
-2.04773	
-2.05536	
-2.05536	
-2.05841	
-2.05841	
-2.05078	
-2.03857	
-2.02789	
-2.01721	
-2.01111	
-2.00806	
-2.01111	
-2.02789	
-2.02942	
-2.02637	
-2.02637	
-2.02637	
-2.02942	
-2.03247	
-2.034	
-2.02942	
-2.02789	
-2.02789	
-2.02789	
-2.034	
-2.034	
-2.034	
-2.034	
-2.03247	
-2.0401	
-2.03857	
-2.0401	
-2.04163	
-2.0462	
-2.03705	
-2.03552	
-2.03857	
-2.034	
-2.03247	
-2.03705	
-2.03552	
-2.03705	
-2.03857	
-2.0401	
-2.03857	
-2.04773	
-2.04773	
-2.05078	
-2.05078	
-2.04926	
-2.04926	
-2.04315	
-2.034	
-2.02942	
-2.02789	
-2.02789	
-2.02637	
-2.02179	
-2.02179	
-2.02789	
-2.02789	
-2.02484	
-2.02332	
-2.02332	
-2.01874	
-2.02179	
-2.02484	
-2.02484	
-2.03247	
-2.03094	
-2.02484	
-2.03247	
-2.02789	
-2.03247	
-2.03705	
-2.03705	
-2.04773	
-2.04926	
-2.04773	
-2.04315	
-2.04163	
-2.03705	
-2.03247	
-2.03552	
-2.03857	
-2.03857	
-2.0401	
-2.04315	
-2.0401	
-2.03705	
-2.0401	
-2.03857	
-2.034	
-2.03247	
-2.0401	
-2.03552	
-2.03247	
-2.03094	
-2.02942	
-2.03552	
-2.04315	
-2.04773	
-2.05078	
-2.05536	
-2.05841	
-2.06146	
-2.06299	
-2.06299	
-2.05383	
-2.05078	
-2.03552	
-2.02332	
-2.01721	
-2.02026	
-2.03247	
-2.03705	
-2.03857	
-2.03705	
-2.03857	
-2.03705	
-2.03857	
-2.0462	
-2.0462	
-2.04163	
-2.04773	
-2.04315	
-2.0401	
-2.04315	
-2.03705	
-2.03857	
-2.0401	
-2.04163	
-2.04163	
-2.034	
-2.02637	
-2.03094	
-2.03094	
-2.03094	
-2.02637	
-2.02332	
-2.02637	
-2.02789	
-2.02637	
-2.02789	
-2.03552	
-2.03857	
-2.0401	
-2.04163	
-2.04773	
-2.04773	
-2.05231	
-2.05383	
-2.04926	
-2.0462	
-2.034	
-2.02942	
-2.02942	
-2.03094	
-2.02942	
-2.03247	
-2.02789	
-2.02789	
-2.02637	
-2.02942	
-2.034	
-2.03094	
-2.03247	
-2.03857	
-2.0462	
-2.0462	
-2.04315	
-2.04315	
-2.04315	
-2.03552	
-2.03857	
-2.03705	
-2.04163	
-2.034	
-2.03094	
-2.034	
-2.034	
-2.03552	
-2.03857	
-2.034	
-2.03247	
-2.03552	
-2.04163	
-2.04163	
-2.0401	
-2.0401	
-2.0462	
-2.04163	
-2.04926	
-2.05383	
-2.05994	
-2.05994	
-2.06604	
-2.06909	
-2.06909	
-2.06604	
-2.06757	
-2.07062	
-2.07367	
-2.06451	
-2.05688	
-2.05078	
-2.04163	
-2.03247	
-2.01721	
-2.00653	
-2.00958	
-2.02332	
-2.03857	
-2.04773	
-2.04926	
-2.04926	
-2.04315	
-2.04315	
-2.04773	
-2.04315	
-2.04315	
-2.0462	
-2.03857	
-2.034	
-2.0401	
-2.03705	
-2.03247	
-2.02789	
-2.03094	
-2.034	
-2.03552	
-2.03247	
-2.02789	
-2.02942	
-2.03552	
-2.0462	
-2.04315	
-2.04315	
-2.04315	
-2.04163	
-2.04163	
-2.034	
-2.03857	
-2.03552	
-2.03247	
-2.02484	
-2.02942	
-2.034	
-2.03857	
-2.03705	
-2.03705	
-2.03552	
-2.03705	
-2.04163	
-2.0401	
-2.0401	
-2.03705	
-2.03705	
-2.03552	
-2.03552	
-2.03094	
-2.03247	
-2.03094	
-2.03705	
-2.03857	
-2.03552	
-2.034	
-2.03705	
-2.0401	
-2.04163	
-2.04315	
-2.0462	
-2.04773	
-2.04315	
-2.05231	
-2.05383	
-2.05536	
-2.06146	
-2.05841	
-2.05994	
-2.05688	
-2.05688	
-2.05536	
-2.05078	
-2.04773	
-2.03857	
-2.03857	
-2.04315	
-2.05078	
-2.05383	
-2.05841	
-2.05536	
-2.05231	
-2.0462	
-2.03857	
-2.0462	
-2.05383	
-2.05383	
-2.04926	
-2.0462	
-2.0462	
-2.04163	
-2.02637	
-2.01721	
-2.00806	
-2.01263	
-2.02332	
-2.03705	
-2.03857	
-2.03552	
-2.03705	
-2.03552	
-2.0401	
-2.04926	
-2.04773	
-2.0462	
-2.0462	
-2.0462	
-2.0462	
-2.04926	
-2.05078	
-2.04926	
-2.03857	
-2.03705	
-2.04163	
-2.03705	
-2.04163	
-2.04773	
-2.03857	
-2.04926	
-2.04315	
-2.04163	
-2.04163	
-2.04163	
-2.0401	
-2.04773	
-2.05383	
-2.05383	
-2.05383	
-2.05078	
-2.05383	
-2.05383	
-2.05383	
-2.05383	
-2.05078	
-2.04773	
-2.04163	
-2.04773	
-2.05231	
-2.05383	
-2.05536	
-2.05231	
-2.05078	
-2.05078	
-2.05231	
-2.05231	
-2.05231	
-2.05536	
-2.05536	
-2.05231	
-2.05536	
-2.05383	
-2.03857	
-2.03094	
-2.02637	
-2.02942	
-2.03857	
-2.03552	
-2.03705	
-2.0401	
-2.04773	
-2.05078	
-2.04773	
-2.04773	
-2.0462	
-2.03857	
-2.02789	
-2.02332	
-2.02637	
-2.03552	
-2.04315	
-2.0401	
-2.04163	
-2.0462	
-2.04926	
-2.04315	
-2.04315	
-2.03857	
-2.03857	
-2.034	
-2.034	
-2.03247	
-2.03552	
-2.03552	
-2.03705	
-2.03552	
-2.0462	
-2.04163	
-2.04773	
-2.04315	
-2.04926	
-2.05536	
-2.06299	
-2.06299	
-2.05994	
-2.05688	
-2.05078	
-2.0401	
-2.02332	
-2.02484	
-2.02026	
-2.02179	
-2.03094	
-2.03552	
-2.0401	
-2.034	
-2.03705	
-2.04163	
-2.04315	
-2.04163	
-2.04315	
-2.04315	
-2.04315	
-2.04315	
-2.0462	
-2.04163	
-2.05383	
-2.05994	
-2.06299	
-2.06757	
-2.06146	
-2.05688	
-2.05688	
-2.05688	
-2.06451	
-2.06604	
-2.06604	
-2.05994	
-2.05994	
-2.04773	
-2.02942	
-2.02332	
-2.02789	
-2.03705	
-2.03857	
-2.03247	
-2.02789	
-2.034	
-2.034	
-2.03552	
-2.03857	
-2.03857	
-2.04163	
-2.04926	
-2.04773	
-2.0462	
-2.04163	
-2.0462	
-2.04163	
-2.04926	
-2.05078	
-2.04315	
-2.0401	
-2.03857	
-2.04315	
-2.04315	
-2.04315	
-2.0401	
-2.03857	
-2.03552	
-2.034	
-2.03552	
-2.04163	
-2.0401	
-2.03857	
-2.04163	
-2.0462	
-2.05231	
-2.05536	
-2.05078	
-2.05688	
-2.05841	
-2.05231	
-2.05231	
-2.05078	
-2.04926	
-2.04315	
-2.04315	
-2.04315	
-2.03247	
-2.0401	
-2.0401	
-2.03705	
-2.03705	
-2.02942	
-2.02942	
-2.03094	
-2.03094	
-2.03552	
-2.03552	
-2.04163	
-2.0462	
-2.04773	
-2.04926	
-2.04315	
-2.04773	
-2.04773	
-2.04315	
-2.0462	
-2.04315	
-2.03857	
-2.03552	
-2.03705	
-2.0462	
-2.05994	
-2.06451	
-2.06604	
-2.06604	
-2.05688	
-2.05383	
-2.05078	
-2.0462	
-2.03705	
-2.03705	
-2.03857	
-2.05078	
-2.05536	
-2.04926	
-2.04926	
-2.05231	
-2.05078	
-2.04163	
-2.034	
-2.0401	
-2.04163	
-2.04163	
-2.04163	
-2.0401	
-2.04163	
-2.03705	
-2.0401	
-2.034	
-2.034	
-2.03247	
-2.03857	
-2.03094	
-2.02332	
-2.02179	
-2.02332	
-2.03094	
-2.03552	
-2.03705	
-2.04163	
-2.03705	
-2.034	
-2.02789	
-2.02942	
-2.03857	
-2.03857	
-2.03552	
-2.03094	
-2.034	
-2.03094	
-2.03247	
-2.03552	
-2.03094	
-2.03552	
-2.03705	
-2.03705	
-2.03857	
-2.0401	
-2.04315	
-2.04315	
-2.04315	
-2.04163	
-2.04315	
-2.04315	
-2.0401	
-2.034	
-2.03857	
-2.03705	
-2.034	
-2.03705	
-2.0401	
-2.04315	
-2.05078	
-2.04773	
-2.0462	
-2.0401	
-2.03857	
-2.0401	
-2.04163	
-2.0401	
-2.03857	
-2.03247	
-2.03552	
-2.03857	
-2.04315	
-2.05078	
-2.05231	
-2.0401	
-2.04773	
-2.05383	
-2.05078	
-2.03857	
-2.04315	
-2.04926	
-2.05078	
-2.05078	
-2.04926	
-2.04163	
-2.034	
-2.01874	
-2.01569	
-2.01111	
-2.01721	
-2.02484	
-2.034	
-2.03705	
-2.04315	
-2.04926	
-2.05688	
-2.06604	
-2.06451	
-2.06909	
-2.06299	
-2.06299	
-2.05688	
-2.05231	
-2.05383	
-2.04773	
-2.0401	
-2.03857	
-2.034	
-2.04163	
-2.034	
-2.02484	
-2.02942	
-2.03247	
-2.03247	
-2.03247	
-2.02942	
-2.03705	
-2.03857	
-2.0462	
-2.04315	
-2.0401	
-2.0401	
-2.034	
-2.03857	
-2.03705	
-2.03857	
-2.04315	
-2.0462	
-2.04315	
-2.04773	
-2.0462	
-2.04926	
-2.04773	
-2.04773	
-2.05231	
-2.05688	
-2.05383	
-2.04926	
-2.05536	
-2.05688	
-2.05688	
-2.05078	
-2.05078	
-2.05231	
-2.05841	
-2.05841	
-2.06451	
-2.06451	
-2.06299	
-2.05841	
-2.05841	
-2.05688	
-2.05231	
-2.05231	
-2.04773	
-2.05231	
-2.04315	
-2.03857	
-2.03247	
-2.02637	
-2.02637	
-2.02026	
-2.02484	
-2.02637	
-2.02789	
-2.03552	
-2.03705	
-2.03552	
-2.04315	
-2.04926	
-2.05383	
-2.05994	
-2.07062	
-2.08435	
-2.08282	
-2.07672	
-2.07062	
-2.06604	
-2.05688	
-2.0462	
-2.03247	
-2.02637	
-2.02484	
-2.034	
-2.0401	
-2.034	
-2.034	
-2.03552	
-2.03705	
-2.03705	
-2.0462	
-2.04315	
-2.0462	
-2.04315	
-2.05078	
-2.05078	
-2.05231	
-2.04926	
-2.0462	
-2.04315	
-2.04315	
-2.04163	
-2.04163	
-2.03705	
-2.03552	
-2.034	
-2.03552	
-2.04315	
-2.04315	
-2.04926	
-2.05078	
-2.05383	
-2.05231	
-2.04926	
-2.04773	
-2.05536	
-2.05078	
-2.05078	
-2.05078	
-2.04926	
-2.04315	
-2.04163	
-2.03705	
-2.034	
-2.04163	
-2.04163	
-2.0462	
-2.0462	
-2.04773	
-2.05078	
-2.0462	
-2.03552	
-2.02942	
-2.02332	
-2.034	
-2.04163	
-2.04773	
-2.05231	
-2.05231	
-2.05383	
-2.04315	
-2.0401	
-2.03857	
-2.03705	
-2.04163	
-2.0401	
-2.03857	
-2.034	
-2.03094	
-2.03094	
-2.03094	
-2.034	
-2.03094	
-2.03552	
-2.03552	
-2.03552	
-2.03857	
-2.03857	
-2.0462	
-2.04926	
-2.05383	
-2.05231	
-2.05078	
-2.05078	
-2.0401	
-2.04315	
-2.03552	
-2.03247	
-2.034	
-2.03705	
-2.03857	
-2.03705	
-2.03705	
-2.034	
-2.03552	
-2.0401	
-2.0462	
-2.04773	
-2.04773	
-2.0462	
-2.04773	
-2.05536	
-2.06146	
-2.06451	
-2.05994	
-2.05688	
-2.05231	
-2.04163	
-2.03705	
-2.034	
-2.03094	
-2.02179	
-2.01874	
-2.03094	
-2.02942	
-2.02637	
-2.02179	
-2.02179	
-2.03094	
-2.03094	
-2.034	
-2.03247	
-2.03705	
-2.03705	
-2.03857	
-2.04315	
-2.0401	
-2.04315	
-2.04926	
-2.05688	
-2.05231	
-2.05536	
-2.05383	
-2.0462	
-2.03705	
-2.04163	
-2.04315	
-2.0401	
-2.03094	
-2.01721	
-2.01569	
-2.02026	
-2.02484	
-2.02026	
-2.01874	
-2.02026	
-2.02484	
-2.02484	
-2.03247	
-2.03247	
-2.034	
-2.03094	
-2.03552	
-2.03857	
-2.03552	
-2.034	
-2.03552	
-2.03247	
-2.03094	
-2.03247	
-2.03094	
-2.03094	
-2.03094	
-2.02942	
-2.02789	
-2.02637	
-2.02942	
-2.02942	
-2.04163	
-2.04315	
-2.05078	
-2.04926	
-2.05078	
-2.04163	
-2.04163	
-2.04315	
-2.03552	
-2.03705	
-2.034	
-2.03247	
-2.034	
-2.03094	
-2.03552	
-2.034	
-2.03094	
-2.03094	
-2.02942	
-2.02942	
-2.02637	
-2.02026	
-2.02332	
-2.02179	
-2.02942	
-2.02789	
-2.03247	
-2.03247	
-2.034	
-2.034	
-2.03552	
-2.02942	
-2.02789	
-2.02942	
-2.02942	
-2.03247	
-2.03247	
-2.034	
-2.03247	
-2.03552	
-2.03857	
-2.04315	
-2.03857	
-2.03857	
-2.04315	
-2.03857	
-2.04315	
-2.04315	
-2.04163	
-2.0401	
-2.03705	
-2.03552	
-2.03552	
-2.03705	
-2.034	
-2.03094	
-2.03247	
-2.034	
-2.03705	
-2.0401	
-2.05078	
-2.0462	
-2.04773	
-2.04163	
-2.0462	
-2.03857	
-2.02789	
-2.034	
-2.034	
-2.034	
-2.02637	
-2.02637	
-2.02332	
-2.02332	
-2.02332	
-2.02637	
-2.02789	
-2.02179	
-2.01874	
-2.01721	
-2.02484	
-2.02789	
-2.02637	
-2.02942	
-2.02789	
-2.02942	
-2.03094	
-2.03247	
-2.03094	
-2.02637	
-2.02637	
-2.02789	
-2.02484	
-2.02179	
-2.02332	
-2.02789	
-2.03247	
-2.03247	
-2.034	
-2.03705	
-2.03857	
-2.03552	
-2.03094	
-2.02789	
-2.02026	
-2.01721	
-2.01721	
-2.02179	
-2.01874	
-2.02332	
-2.02179	
-2.02332	
-2.02179	
-2.02637	
-2.02637	
-2.02484	
-2.01874	
-2.02637	
-2.02789	
-2.02637	
-2.02789	
-2.03247	
-2.03552	
-2.0401	
-2.0462	
-2.03857	
-2.03552	
-2.034	
-2.03705	
-2.03705	
-2.03552	
-2.03857	
-2.0462	
-2.05078	
-2.04926	
-2.04315	
-2.03705	
-2.02484	
-2.01874	
-2.01263	
-2.00806	
-2.01263	
-2.01721	
-2.01874	
-2.02026	
-2.02332	
-2.02637	
-2.02179	
-2.02637	
-2.02789	
-2.03094	
-2.03094	
-2.03094	
-2.03094	
-2.02637	
-2.02484	
-2.02637	
-2.02789	
-2.034	
-2.03552	
-2.03705	
-2.03857	
-2.0401	
-2.0401	
-2.03705	
-2.02789	
-2.01721	
-2.005	
-2.00653	
-2.00043	
-1.9989	
-2.00348	
-2.00348	
-2.00348	
-1.99432	
-1.9989	
-2.005	
-2.00653	
-2.00653	
-2.01111	
-2.01263	
-2.00958	
-2.01111	
-2.01111	
-2.01111	
-2.01263	
-2.01263	
-2.01874	
-2.02026	
-2.02484	
-2.02484	
-2.02942	
-2.02484	
-2.02179	
-2.01721	
-2.01569	
-2.01874	
-2.01874	
-2.01721	
-2.01569	
-2.01721	
-2.01721	
-2.01569	
-2.02026	
-2.02484	
-2.02942	
-2.03705	
-2.03857	
-2.034	
-2.03552	
-2.02484	
-2.02332	
-2.01874	
-2.02484	
-2.02637	
-2.02332	
-2.02484	
-2.02789	
-2.02179	
-2.00348	
-2.00348	
-2.00348	
-2.00806	
-2.00806	
-2.01569	
-2.01569	
-2.02026	
-2.02026	
-2.02637	
-2.03094	
-2.02637	
-2.02637	
-2.02789	
-2.03247	
-2.03094	
-2.02789	
-2.02179	
-2.01874	
-2.00958	
-2.00958	
-2.01721	
-2.02637	
-2.02332	
-2.01874	
-2.01569	
-2.02026	
-2.02179	
-2.02332	
-2.02637	
-2.03094	
-2.02942	
-2.03247	
-2.02942	
-2.0401	
-2.04163	
-2.04163	
-2.04773	
-2.05231	
-2.05231	
-2.04926	
-2.03857	
-2.02637	
-2.01263	
-2.00348	
-2.00653	
-2.01111	
-2.005	
-2.00653	
-2.00806	
-2.00348	
-2.00043	
-2.00348	
-2.005	
-2.00806	
-2.01874	
-2.01874	
-2.01263	
-2.01721	
-2.01569	
-2.01874	
-2.02637	
-2.03094	
-2.03094	
-2.03247	
-2.03094	
-2.02637	
-2.02637	
-2.02942	
-2.02484	
-2.02637	
-2.02942	
-2.02789	
-2.02332	
-2.02026	
-2.02637	
-2.02484	
-2.02637	
-2.03094	
-2.03094	
-2.03552	
-2.03857	
-2.0401	
-2.04315	
-2.04315	
-2.0401	
-2.03857	
-2.03705	
-2.03094	
-2.00348	
-1.9989	
-1.99585	
-2.00043	
-2.01111	
-2.01569	
-2.01569	
-2.01569	
-2.02026	
-2.02179	
-2.02179	
-2.02332	
-2.02637	
-2.02484	
-2.02484	
-2.02637	
-2.02484	
-2.02484	
-2.02484	
-2.02637	
-2.02789	
-2.02637	
-2.03247	
-2.03094	
-2.03857	
-2.04163	
-2.03857	
-2.04163	
-2.04163	
-2.03857	
-2.034	
-2.03552	
-2.03552	
-2.03552	
-2.03247	
-2.02942	
-2.02484	
-2.02789	
-2.02789	
-2.03247	
-2.03247	
-2.03094	
-2.03094	
-2.02484	
-2.02789	
-2.034	
-2.02942	
-2.02789	
-2.02484	
-2.02026	
-2.01874	
-2.02179	
-2.02637	
-2.03247	
-2.03094	
-2.03094	
-2.03247	
-2.034	
-2.03552	
-2.03857	
-2.04315	
-2.0401	
-2.0462	
-2.04163	
-2.04315	
-2.04163	
-2.03552	
-2.03094	
-2.03247	
-2.0401	
-2.03705	
-2.03247	
-2.02942	
-2.02484	
-2.02789	
-2.02484	
-2.02789	
-2.03247	
-2.034	
-2.03094	
-2.02789	
-2.034	
-2.03552	
-2.04163	
-2.03857	
-2.0401	
-2.0401	
-2.03705	
-2.03247	
-2.034	
-2.02942	
-2.02789	
-2.02789	
-2.02789	
-2.02637	
-2.02332	
-2.02332	
-2.02484	
-2.03094	
-2.03247	
-2.02332	
-2.02789	
-2.03247	
-2.0401	
-2.03705	
-2.03705	
-2.03705	
-2.03552	
-2.034	
-2.03247	
-2.034	
-2.03094	
-2.02789	
-2.02179	
-2.01874	
-2.01874	
-2.02179	
-2.02179	
-2.02179	
-2.02332	
-2.02942	
-2.02942	
-2.03247	
-2.034	
-2.04773	
-2.05231	
-2.05078	
-2.05078	
-2.04926	
-2.0462	
-2.034	
-2.02484	
-2.02637	
-2.02332	
-2.02484	
-2.02942	
-2.034	
-2.03094	
-2.02942	
-2.02637	
-2.02942	
-2.02484	
-2.02637	
-2.02484	
-2.02789	
-2.03094	
-2.02942	
-2.02484	
-2.02789	
-2.03705	
-2.034	
-2.03094	
-2.03247	
-2.03552	
-2.034	
-2.02942	
-2.03094	
-2.03094	
-2.02637	
-2.02484	
-2.02942	
-2.02637	
-2.03094	
-2.02942	
-2.02026	
-2.01263	
-2.01721	
-2.02026	
-2.02637	
-2.02637	
-2.03247	
-2.02637	
-2.02484	
-2.02789	
-2.02789	
-2.03094	
-2.02942	
-2.02637	
-2.02484	
-2.02789	
-2.02789	
-2.02484	
-2.02637	
-2.02942	
-2.02637	
-2.03247	
-2.03094	
-2.03247	
-2.02637	
-2.01721	
-2.02332	
-2.02637	
-2.03247	
-2.034	
-2.03247	
-2.034	
-2.03094	
-2.02942	
-2.02942	
-2.02789	
-2.02942	
-2.02179	
-2.01721	
-2.02026	
-2.02179	
-2.02179	
-2.02332	
-2.02332	
-2.02026	
-2.02332	
-2.02179	
-2.02484	
-2.02179	
-2.02179	
-2.02637	
-2.03094	
-2.03094	
-2.02942	
-2.02942	
-2.034	
-2.034	
-2.03247	
-2.03247	
-2.03247	
-2.02484	
-2.01874	
-2.02179	
-2.02789	
-2.02942	
-2.02637	
-2.02332	
-2.02179	
-2.02179	
-2.02332	
-2.02179	
-2.02484	
-2.01721	
-2.01874	
-2.02789	
-2.02789	
-2.02789	
-2.02332	
-2.03705	
-2.03705	
-2.03094	
-2.03094	
-2.034	
-2.0462	
-2.05383	
-2.05536	
-2.05383	
-2.04773	
-2.03552	
-2.02637	
-2.01263	
-2.00806	
-2.00653	
-2.00806	
-2.005	
-2.00806	
-2.00806	
-2.01721	
-2.01874	
-2.01874	
-2.02332	
-2.02026	
-2.02332	
-2.01569	
-2.01263	
-2.01569	
-2.01569	
-2.01874	
-2.02179	
-2.02179	
-2.02026	
-2.02026	
-2.02332	
-2.02179	
-2.01874	
-2.02332	
-2.02179	
-2.02637	
-2.02789	
-2.02789	
-2.02332	
-2.02484	
-2.02789	
-2.03247	
-2.03247	
-2.03094	
-2.03094	
-2.03094	
-2.03247	
-2.02789	
-2.02637	
-2.02332	
-2.01569	
-2.00958	
-2.01111	
-2.01874	
-2.01874	
-2.02026	
-2.02332	
-2.02179	
-2.02332	
-2.02637	
-2.02179	
-2.01874	
-2.01263	
-2.01721	
-2.01721	
-2.01263	
-2.01111	
-2.01721	
-2.02332	
-2.02179	
-2.02179	
-2.02179	
-2.01263	
-2.01111	
-2.01111	
-2.01874	
-2.02179	
-2.02332	
-2.02026	
-2.01874	
-2.02179	
-2.02026	
-2.02026	
-2.01874	
-2.02026	
-2.02026	
-2.01721	
-2.02332	
-2.01721	
-2.00958	
-2.01263	
-2.02179	
-2.02332	
-2.01569	
-2.01111	
-2.01111	
-2.01111	
-2.01721	
-2.01721	
-2.00958	
-2.00653	
-2.00958	
-2.00958	
-2.01111	
-2.01569	
-2.01111	
-2.00653	
-2.00806	
-2.00348	
-2.01569	
-2.02942	
-2.03094	
-2.02789	
-2.02637	
-2.02332	
-2.02179	
-2.01111	
-1.9989	
-1.9989	
-2.005	
-2.00653	
-2.01874	
-2.00806	
-2.005	
-2.00348	
-2.00806	
-2.00806	
-2.01721	
-2.00958	
-2.00958	
-2.01721	
-2.01569	
-2.01721	
-2.02026	
-2.01874	
-2.02026	
-2.02026	
-2.02179	
-2.01569	
-2.00806	
-2.00653	
-2.00806	
-2.00958	
-2.01263	
-2.01569	
-2.01263	
-2.01721	
-2.01263	
-2.00653	
-1.99432	
-1.98975	
-1.9928	
-1.99127	
-2.00043	
-2.00958	
-2.00653	
-2.00958	
-2.01263	
-2.01263	
-2.01721	
-2.02332	
-2.02332	
-2.01721	
-2.01263	
-2.00348	
-2.00348	
-2.00653	
-2.00348	
-2.005	
-2.00348	
-2.00958	
-2.00653	
-2.00958	
-2.01569	
-2.01874	
-2.01874	
-2.02179	
-2.02179	
-2.01263	
-2.00958	
-2.01569	
-2.02026	
-2.01721	
-2.00806	
-2.00653	
-2.00958	
-2.00958	
-2.00348	
-1.9928	
-1.9989	
-2.00043	
-2.00653	
-2.00958	
-2.01263	
-2.01111	
-2.01263	
-2.01111	
-2.00958	
-2.01263	
-2.01569	
-2.01721	
-2.01874	
-2.01874	
-2.02484	
-2.02026	
-2.01874	
-2.01111	
-2.00958	
-2.00653	
-2.01721	
-2.01874	
-2.01874	
-2.02026	
-2.03094	
-2.03094	
-2.03094	
-2.02484	
-2.02942	
-2.03552	
-2.03552	
-2.034	
-2.034	
-2.02942	
-2.02332	
-2.01874	
-2.01569	
-2.01111	
-2.01111	
-2.00348	
-1.99585	
-2.00043	
-2.005	
-2.00195	
-2.00195	
-2.00195	
-2.00653	
-2.00958	
-2.01263	
-2.005	
-2.00348	
-2.00195	
-2.005	
-2.00958	
-2.01569	
-2.01263	
-2.01263	
-2.01721	
-2.02026	
-2.01721	
-2.01569	
-2.02026	
-2.02332	
-2.01721	
-2.01874	
-2.02789	
-2.02026	
-2.01874	
-2.01874	
-2.02332	
-2.02332	
-2.02332	
-2.02484	
-2.02026	
-2.02484	
-2.02026	
-2.02332	
-2.02637	
-2.03094	
-2.03247	
-2.03094	
-2.034	
-2.02789	
-2.02789	
-2.02332	
-2.02637	
-2.03094	
-2.03094	
-2.03247	
-2.03094	
-2.02942	
-2.03094	
-2.02332	
-2.02637	
-2.02026	
-2.02484	
-2.02484	
-2.02484	
-2.02942	
-2.02789	
-2.02332	
-2.02179	
-2.02942	
-2.02942	
-2.02942	
-2.02484	
-2.02332	
-2.02942	
-2.03705	
-2.03552	
-2.02637	
-2.02332	
-2.01569	
-2.01111	
-2.02179	
-2.03094	
-2.02332	
-2.02332	
-2.02179	
-2.01874	
-2.02026	
-2.02332	
-2.00958	
-1.9989	
-2.00653	
-2.01721	
-2.02026	
-2.02332	
-2.01874	
-2.02332	
-2.02332	
-2.02789	
-2.02332	
-2.02332	
-2.02179	
-2.01874	
-2.02026	
-2.02026	
-2.02332	
-2.02026	
-2.02179	
-2.02484	
-2.02942	
-2.04163	
-2.05383	
-2.04926	
-2.05078	
-2.05078	
-2.04926	
-2.03857	
-2.03705	
-2.03247	
-2.03247	
-2.02942	
-2.034	
-2.03247	
-2.02637	
-2.02789	
-2.02332	
-2.02484	
-2.01721	
-2.01111	
-2.01263	
-2.01569	
-2.02484	
-2.02637	
-2.02637	
-2.02637	
-2.02637	
-2.02942	
-2.02942	
-2.02789	
-2.03552	
-2.03705	
-2.04315	
-2.04926	
-2.04926	
-2.0462	
-2.04315	
-2.0401	
-2.0401	
-2.03857	
-2.0401	
-2.03857	
-2.03857	
-2.04163	
-2.03857	
-2.03247	
-2.02026	
-2.01569	
-2.01721	
-2.02484	
-2.02789	
-2.02332	
-2.02942	
-2.02942	
-2.02484	
-2.01874	
-2.02332	
-2.02484	
-2.02637	
-2.02332	
-2.03094	
-2.03094	
-2.03857	
-2.0401	
-2.03705	
-2.04163	
-2.04773	
-2.05078	
-2.04926	
-2.04926	
-2.04163	
-2.0401	
-2.034	
-2.02942	
-2.02789	
-2.02789	
-2.02484	
-2.02484	
-2.02942	
-2.03247	
-2.03094	
-2.03094	
-2.03094	
-2.02332	
-2.01721	
-2.02026	
-2.02637	
-2.03094	
-2.034	
-2.03247	
-2.02789	
-2.02332	
-2.02179	
-2.02484	
-2.02942	
-2.03247	
-2.034	
-2.03247	
-2.03247	
-2.03705	
-2.04163	
-2.0462	
-2.04163	
-2.04163	
-2.04773	
-2.04315	
-2.04926	
-2.0462	
-2.04163	
-2.0401	
-2.03552	
-2.02637	
-2.02637	
-2.03094	
-2.03705	
-2.03552	
-2.03857	
-2.04163	
-2.03857	
-2.03857	
-2.03552	
-2.02942	
-2.03094	
-2.03857	
-2.04163	
-2.04315	
-2.04315	
-2.04163	
-2.04315	
-2.03552	
-2.03705	
-2.03705	
-2.034	
-2.03094	
-2.03247	
-2.03094	
-2.02789	
-2.02942	
-2.034	
-2.03705	
-2.034	
-2.03857	
-2.05231	
-2.06757	
-2.06909	
-2.06909	
-2.07062	
-2.06757	
-2.05994	
-2.05688	
-2.05536	
-2.05231	
-2.05078	
-2.05383	
-2.05383	
-2.04315	
-2.03552	
-2.02637	
-2.02026	
-2.01874	
-2.02026	
-2.02484	
-2.034	
-2.04163	
-2.04773	
-2.0462	
-2.0462	
-2.04315	
-2.04163	
-2.03857	
-2.03247	
-2.02637	
-2.02637	
-2.03552	
-2.03552	
-2.03705	
-2.04163	
-2.03857	
-2.034	
-2.03857	
-2.03705	
-2.03247	
-2.02789	
-2.02789	
-2.03094	
-2.03552	
-2.03247	
-2.034	
-2.03552	
-2.03705	
-2.03247	
-2.03552	
-2.03857	
-2.03705	
-2.03705	
-2.0401	
-2.03552	
-2.034	
-2.03552	
-2.034	
-2.034	
-2.03705	
-2.03705	
-2.03705	
-2.03857	
-2.03552	
-2.04315	
-2.04926	
-2.04926	
-2.05231	
-2.05078	
-2.05383	
-2.05536	
-2.04773	
-2.0462	
-2.04926	
-2.04926	
-2.04773	
-2.05078	
-2.05688	
-2.06451	
-2.07062	
-2.07062	
-2.07672	
-2.07214	
-2.06604	
-2.06146	
-2.05383	
-2.05383	
-2.05078	
-2.05231	
-2.04926	
-2.05383	
-2.05383	
-2.0462	
-2.03857	
-2.034	
-2.03247	
-2.034	
-2.02942	
-2.02637	
-2.03094	
-2.03247	
-2.03705	
-2.03247	
-2.03705	
-2.04773	
-2.05231	
-2.05078	
-2.06146	
-2.06299	
-2.05994	
-2.06604	
-2.06299	
-2.06451	
-2.06146	
-2.05688	
-2.05078	
-2.05078	
-2.04926	
-2.04926	
-2.0462	
-2.04315	
-2.03857	
-2.04315	
-2.05841	
-2.05994	
-2.05536	
-2.05231	
-2.05231	
-2.05078	
-2.0401	
-2.034	
-2.03094	
-2.02942	
-2.02484	
-2.03705	
-2.04163	
-2.04163	
-2.03705	
-2.0401	
-2.04163	
-2.0462	
-2.0462	
-2.04163	
-2.04163	
-2.04163	
-2.04163	
-2.04773	
-2.04773	
-2.0462	
-2.0462	
-2.05078	
-2.05078	
-2.05078	
-2.05078	
-2.05231	
-2.05536	
-2.05231	
-2.05536	
-2.05078	
-2.04773	
-2.05078	
-2.04926	
-2.04926	
-2.04926	
-2.04926	
-2.05231	
-2.05231	
-2.05383	
-2.05383	
-2.04926	
-2.05078	
-2.04926	
-2.05383	
-2.06299	
-2.07214	
-2.06909	
-2.06451	
-2.06299	
-2.06604	
-2.07672	
-2.07367	
-2.06757	
-2.06909	
-2.06146	
-2.06451	
-2.05383	
-2.0462	
-2.0401	
-2.03247	
-2.02484	
-2.02942	
-2.034	
-2.034	
-2.03552	
-2.03552	
-2.03094	
-2.02484	
-2.02789	
-2.03094	
-2.034	
-2.03552	
-2.0401	
-2.04315	
-2.04773	
-2.04773	
-2.05078	
-2.05078	
-2.05383	
-2.05383	
-2.05078	
-2.04773	
-2.04315	
-2.0401	
-2.04163	
-2.0401	
-2.0401	
-2.034	
-2.03552	
-2.034	
-2.03552	
-2.03857	
-2.03247	
-2.03705	
-2.03705	
-2.03857	
-2.04163	
-2.04163	
-2.0462	
-2.04315	
-2.06146	
-2.06451	
-2.06299	
-2.05994	
-2.05688	
-2.05688	
-2.0462	
-2.03857	
-2.03247	
-2.02789	
-2.02789	
-2.03552	
-2.04163	
-2.03705	
-2.02637	
-2.02942	
-2.03094	
-2.03247	
-2.0401	
-2.0401	
-2.04926	
-2.0462	
-2.05383	
-2.05078	
-2.05231	
-2.05231	
-2.05231	
-2.05231	
-2.05383	
-2.04315	
-2.04315	
-2.04315	
-2.04926	
-2.05231	
-2.05078	
-2.05383	
-2.04315	
-2.04163	
-2.04315	
-2.05383	
-2.05383	
-2.05231	
-2.04926	
-2.04315	
-2.04926	
-2.0462	
-2.04773	
-2.04315	
-2.04773	
-2.03552	
-2.03094	
-2.02942	
-2.03857	
-2.03857	
-2.04315	
-2.0401	
-2.05078	
-2.05078	
-2.04926	
-2.04315	
-2.04315	
-2.05231	
-2.05383	
-2.05231	
-2.04773	
-2.04926	
-2.05383	
-2.05688	
-2.05841	
-2.05841	
-2.05231	
-2.05078	
-2.04773	
-2.04926	
-2.05078	
-2.0401	
-2.03705	
-2.03094	
-2.02789	
-2.02637	
-2.02789	
-2.03094	
-2.03552	
-2.04163	
-2.03857	
-2.03552	
-2.02942	
-2.02637	
-2.02789	
-2.034	
-2.034	
-2.03247	
-2.03247	
-2.03094	
-2.03247	
-2.03094	
-2.034	
-2.03094	
-2.02637	
-2.02942	
-2.03705	
-2.03857	
-2.03705	
-2.034	
-2.034	
-2.03552	
-2.03857	
-2.0401	
-2.03857	
-2.0401	
-2.03857	
-2.0401	
-2.03857	
-2.0401	
-2.0401	
-2.03857	
-2.03705	
-2.04315	
-2.0462	
-2.04926	
-2.04315	
-2.03857	
-2.03552	
-2.03094	
-2.03857	
-2.04163	
-2.04163	
-2.04926	
-2.04926	
-2.06299	
-2.06604	
-2.07062	
-2.06757	
-2.06757	
-2.05688	
-2.0462	
-2.03247	
-2.02789	
-2.02332	
-2.01721	
-2.01721	
-2.02332	
-2.02789	
-2.02789	
-2.02637	
-2.03094	
-2.03247	
-2.03705	
-2.03705	
-2.03247	
-2.03552	
-2.034	
-2.03094	
-2.02789	
-2.03094	
-2.03857	
-2.04315	
-2.0462	
-2.04315	
-2.04926	
-2.05231	
-2.04773	
-2.04315	
-2.04315	
-2.04163	
-2.03857	
-2.03705	
-2.034	
-2.02789	
-2.02789	
-2.03094	
-2.03094	
-2.03705	
-2.03857	
-2.03705	
-2.03247	
-2.02942	
-2.02637	
-2.03094	
-2.02942	
-2.03247	
-2.03247	
-2.02637	
-2.02484	
-2.02942	
-2.02789	
-2.02484	
-2.02484	
-2.02637	
-2.02637	
-2.02637	
-2.03247	
-2.03552	
-2.03857	
-2.03094	
-2.03552	
-2.03857	
-2.03857	
-2.04315	
-2.03857	
-2.03857	
-2.03247	
-2.03094	
-2.02789	
-2.03552	
-2.03705	
-2.04773	
-2.05078	
-2.05078	
-2.04315	
-2.0401	
-2.04773	
-2.04163	
-2.0401	
-2.03857	
-2.03247	
-2.02942	
-2.02789	
-2.03705	
-2.03705	
-2.034	
-2.03705	
-2.0462	
-2.05383	
-2.05536	
-2.05231	
-2.05231	
-2.0401	
-2.03705	
-2.03552	
-2.03094	
-2.03094	
-2.02332	
-2.034	
-2.0401	
-2.04315	
-2.03857	
-2.04163	
-2.05231	
-2.05231	
-2.05231	
-2.04315	
-2.0401	
-2.03705	
-2.034	
-2.034	
-2.03705	
-2.03552	
-2.02942	
-2.02484	
-2.02637	
-2.02637	
-2.02332	
-2.01874	
-2.02637	
-2.02637	
-2.02332	
-2.02484	
-2.02484	
-2.02484	
-2.02179	
-2.02637	
-2.02789	
-2.034	
-2.03705	
-2.04163	
-2.04315	
-2.04926	
-2.05536	
-2.05841	
-2.05688	
-2.05841	
-2.05841	
-2.05383	
-2.05231	
-2.04773	
-2.04315	
-2.03705	
-2.02789	
-2.034	
-2.03247	
-2.03094	
-2.02637	
-2.02637	
-2.034	
-2.03552	
-2.0401	
-2.04315	
-2.05078	
-2.05383	
-2.06146	
-2.05994	
-2.05994	
-2.05536	
-2.04926	
-2.04926	
-2.04163	
-2.0401	
-2.03857	
-2.03094	
-2.02942	
-2.03094	
-2.034	
-2.03094	
-2.02942	
-2.02789	
-2.03247	
-2.03705	
-2.0462	
-2.04773	
-2.05994	
-2.05994	
-2.05994	
-2.05688	
-2.05231	
-2.04773	
-2.03857	
-2.02789	
-2.02789	
-2.02179	
-2.02637	
-2.03094	
-2.034	
-2.03705	
-2.04773	
-2.04926	
-2.05536	
-2.05383	
-2.05383	
-2.05078	
-2.05994	
-2.05383	
-2.05078	
-2.03857	
-2.03552	
-2.03552	
-2.02942	
-2.02789	
-2.03094	
-2.03705	
-2.03857	
-2.0401	
-2.0401	
-2.03857	
-2.03705	
-2.03857	
-2.04163	
-2.04315	
-2.04926	
-2.04773	
-2.05536	
-2.06146	
-2.05688	
-2.05231	
-2.05231	
-2.04163	
-2.03247	
-2.03552	
-2.03857	
-2.03857	
-2.0401	
-2.03552	
-2.03705	
-2.034	
-2.02484	
-2.02637	
-2.03094	
-2.034	
-2.0462	
-2.05536	
-2.05536	
-2.05841	
-2.05536	
-2.04926	
-2.04773	
-2.0401	
-2.04163	
-2.03857	
-2.03705	
-2.04315	
-2.05078	
-2.05231	
-2.04926	
-2.04163	
-2.04163	
-2.04163	
-2.0462	
-2.04926	
-2.04926	
-2.05078	
-2.05231	
-2.05231	
-2.05078	
-2.05536	
-2.05536	
-2.05841	
-2.05688	
-2.05994	
-2.06299	
-2.05841	
-2.06299	
-2.06299	
-2.05994	
-2.05078	
-2.0462	
-2.04163	
-2.0462	
-2.04163	
-2.034	
-2.03094	
-2.02789	
-2.03552	
-2.04315	
-2.03857	
-2.03552	
-2.03705	
-2.0401	
-2.03857	
-2.04163	
-2.0462	
-2.04773	
-2.05078	
-2.04926	
-2.03857	
-2.0401	
-2.04163	
-2.0401	
-2.04315	
-2.05383	
-2.05231	
-2.05231	
-2.04926	
-2.05231	
-2.05231	
-2.05231	
-2.05688	
-2.05231	
-2.04773	
-2.04163	
-2.04773	
-2.04773	
-2.05078	
-2.04773	
-2.05231	
-2.0462	
-2.05231	
-2.05536	
-2.05841	
-2.07062	
-2.06604	
-2.06451	
-2.06451	
-2.06299	
-2.05994	
-2.05841	
-2.04926	
-2.04773	
-2.05078	
-2.04773	
-2.04773	
-2.04926	
-2.05383	
-2.05231	
-2.05078	
-2.0462	
-2.05231	
-2.04926	
-2.03857	
-2.03857	
-2.04315	
-2.04926	
-2.05078	
-2.05688	
-2.05994	
-2.05841	
-2.05688	
-2.05536	
-2.05536	
-2.05536	
-2.05841	
-2.06146	
-2.06299	
-2.05841	
-2.05536	
-2.06451	
-2.06757	
-2.06451	
-2.06146	
-2.06146	
-2.05994	
-2.05078	
-2.05231	
-2.05383	
-2.04773	
-2.0462	
-2.04773	
-2.04315	
-2.04926	
-2.04773	
-2.0462	
-2.0462	
-2.0462	
-2.04315	
-2.04163	
-2.0462	
-2.0462	
-2.04926	
-2.04773	
-2.0462	
-2.04773	
-2.0462	
-2.05078	
-2.05078	
-2.05231	
-2.05536	
-2.05536	
-2.05383	
-2.05383	
-2.05383	
-2.05383	
-2.05383	
-2.05536	
-2.05841	
-2.05688	
-2.05994	
-2.05841	
-2.05383	
-2.05841	
-2.06299	
-2.06604	
-2.06604	
-2.07062	
-2.06299	
-2.05841	
-2.05841	
-2.05231	
-2.04926	
-2.04773	
-2.05536	
-2.06146	
-2.05688	
-2.05231	
-2.05841	
-2.05688	
-2.05688	
-2.06451	
-2.05841	
-2.05383	
-2.05841	
-2.05536	
-2.05841	
-2.05994	
-2.06451	
-2.06146	
-2.05994	
-2.05994	
-2.05994	
-2.06299	
-2.05994	
-2.05841	
-2.05383	
-2.06146	
-2.06146	
-2.06146	
-2.05078	
-2.0462	
-2.04926	
-2.05841	
-2.06451	
-2.06757	
-2.05841	
-2.05383	
-2.05231	
-2.04163	
-2.03552	
-2.03552	
-2.03705	
-2.03705	
-2.03094	
-2.0401	
-2.04926	
-2.05383	
-2.05383	
-2.05383	
-2.05383	
-2.05231	
-2.04773	
-2.05536	
-2.05994	
-2.07062	
-2.07214	
-2.0813	
-2.0874	
-2.07825	
-2.06299	
-2.05994	
-2.04926	
-2.05383	
-2.05688	
-2.06299	
-2.07367	
-2.07214	
-2.06909	
-2.05688	
-2.05841	
-2.05688	
-2.05536	
-2.05383	
-2.05841	
-2.05536	
-2.05231	
-2.04926	
-2.0462	
-2.05078	
-2.05231	
-2.05841	
-2.05688	
-2.05994	
-2.06299	
-2.06299	
-2.05994	
-2.05994	
-2.05994	
-2.05994	
-2.06299	
-2.06299	
-2.06604	
-2.06757	
-2.06909	
-2.06451	
-2.06451	
-2.06299	
-2.06451	
-2.06451	
-2.06604	
-2.06604	
-2.06909	
-2.06451	
-2.05383	
-2.04773	
-2.0462	
-2.05383	
-2.05841	
-2.05994	
-2.05994	
-2.06451	
-2.06451	
-2.06299	
-2.06757	
-2.06604	
-2.07367	
-2.07672	
-2.0813	
-2.07977	
-2.08282	
-2.07825	
-2.07367	
-2.06757	
-2.06757	
-2.06451	
-2.06146	
-2.06299	
-2.06146	
-2.06451	
-2.06299	
-2.06451	
-2.06299	
-2.06909	
-2.06757	
-2.07825	
-2.09808	
-2.11792	
-2.12555	
-2.1225	
-2.11945	
-2.11487	
-2.09351	
-2.07672	
-2.06451	
-2.06451	
-2.06146	
-2.06146	
-2.06299	
-2.05688	
-2.04926	
-2.02942	
-2.02789	
-2.04163	
-2.04926	
-2.05231	
-2.05841	
-2.05994	
-2.06451	
-2.06299	
-2.05994	
-2.05994	
-2.05688	
-2.05688	
-2.05688	
-2.05536	
-2.05383	
-2.05383	
-2.05231	
-2.05536	
-2.05841	
-2.06299	
-2.06299	
-2.06146	
-2.06604	
-2.06451	
-2.06299	
-2.06909	
-2.06604	
-2.06909	
-2.06604	
-2.06604	
-2.06451	
-2.06757	
-2.06604	
-2.06757	
-2.06604	
-2.06604	
-2.06604	
-2.06451	
-2.06451	
-2.06604	
-2.06757	
-2.06757	
-2.06909	
-2.06757	
-2.06604	
-2.06909	
-2.06604	
-2.06757	
-2.06757	
-2.07062	
-2.06909	
-2.07214	
-2.07825	
-2.07672	
-2.07672	
-2.07367	
-2.07977	
-2.08435	
-2.08588	
-2.09656	
-2.09961	
-2.10114	
-2.09351	
-2.0813	
-2.06909	
-2.07214	
-2.06604	
-2.06146	
-2.06146	
-2.05994	
-2.06146	
-2.06757	
-2.06909	
-2.07672	
-2.0813	
-2.08588	
-2.07977	
-2.06757	
-2.06909	
-2.07367	
-2.08435	
-2.09351	
-2.09198	
-2.09503	
-2.09351	
-2.07062	
-2.05536	
-2.0462	
-2.04315	
-2.0401	
-2.04773	
-2.05383	
-2.05231	
-2.0462	
-2.04315	
-2.04315	
-2.05078	
-2.05383	
-2.0462	
-2.0462	
-2.04926	
-2.05231	
-2.05536	
-2.06146	
-2.06604	
-2.06451	
-2.06451	
-2.06604	
-2.06451	
-2.06299	
-2.06604	
-2.06604	
-2.06909	
-2.06757	
-2.07062	
-2.06757	
-2.06757	
-2.06604	
-2.06757	
-2.06757	
-2.06909	
-2.06909	
-2.06909	
-2.06909	
-2.06604	
-2.06451	
-2.06451	
-2.06757	
-2.07062	
-2.06909	
-2.06757	
-2.06909	
-2.06909	
-2.07214	
-2.06909	
-2.06604	
-2.06757	
-2.06757	
-2.06909	
-2.07367	
-2.07367	
-2.07214	
-2.06909	
-2.06604	
-2.06451	
-2.06757	
-2.07062	
-2.07062	
-2.07367	
-2.08282	
-2.0874	
-2.08588	
-2.08588	
-2.08893	
-2.08282	
-2.08282	
-2.08282	
-2.07672	
-2.07214	
-2.06909	
-2.05994	
-2.06146	
-2.06299	
-2.05994	
-2.05078	
-2.04926	
-2.04926	
-2.05383	
-2.05078	
-2.05231	
-2.04926	
-2.05688	
-2.05841	
-2.05688	
-2.05841	
-2.06451	
-2.06299	
-2.07672	
-2.07977	
-2.07825	
-2.06909	
-2.07367	
-2.07672	
-2.07672	
-2.07214	
-2.06757	
-2.06604	
-2.06299	
-2.06146	
-2.05841	
-2.06909	
-2.07062	
-2.07825	
-2.07825	
-2.07062	
-2.06909	
-2.06604	
-2.05536	
-2.05841	
-2.05688	
-2.05841	
-2.06909	
-2.06299	
-2.06757	
-2.06757	
-2.06604	
-2.06909	
-2.06451	
-2.06299	
-2.05231	
-2.04926	
-2.05536	
-2.05536	
-2.05841	
-2.06299	
-2.06299	
-2.05688	
-2.05536	
-2.05994	
-2.05841	
-2.06146	
-2.06604	
-2.06299	
-2.06299	
-2.06451	
-2.06604	
-2.06299	
-2.06604	
-2.06451	
-2.06451	
-2.06146	
-2.06604	
-2.06909	
-2.06604	
-2.06451	
-2.06604	
-2.06299	
-2.06909	
-2.06757	
-2.06909	
-2.06757	
-2.06451	
-2.06604	
-2.06451	
-2.06757	
-2.06451	
-2.06757	
-2.06146	
-2.06451	
-2.06757	
-2.07214	
-2.07214	
-2.07672	
-2.07825	
-2.07672	
-2.09045	
-2.10266	
-2.11029	
-2.11182	
-2.11639	
-2.11792	
-2.11182	
-2.09961	
-2.08588	
-2.07825	
-2.05994	
-2.04926	
-2.03247	
-2.03094	
-2.04163	
-2.05688	
-2.05536	
-2.06299	
-2.06604	
-2.06604	
-2.06757	
-2.06451	
-2.06604	
-2.06299	
-2.06299	
-2.05688	
-2.05841	
-2.05841	
-2.05994	
-2.06299	
-2.05994	
-2.05994	
-2.06299	
-2.06146	
-2.06757	
-2.06909	
-2.06909	
-2.07214	
-2.07062	
-2.07214	
-2.07214	
-2.07367	
-2.07367	
-2.07214	
-2.07367	
-2.07214	
-2.07214	
-2.06299	
-2.06146	
-2.06299	
-2.06604	
-2.06604	
-2.07062	
-2.06299	
-2.05688	
-2.05688	
-2.05994	
-2.05688	
-2.05994	
-2.06146	
-2.06451	
-2.06299	
-2.06299	
-2.06299	
-2.06451	
-2.06909	
-2.06604	
-2.06757	
-2.06757	
-2.06909	
-2.07062	
-2.07214	
-2.07367	
-2.07214	
-2.07672	
-2.07672	
-2.07825	
-2.07367	
-2.07672	
-2.07214	
-2.06757	
-2.07214	
-2.07062	
-2.07062	
-2.07062	
-2.07062	
-2.07367	
-2.0813	
-2.07672	
-2.07825	
-2.08435	
-2.0813	
-2.08282	
-2.0813	
-2.0813	
-2.0813	
-2.07672	
-2.07825	
-2.09961	
-2.10876	
-2.09961	
-2.10266	
-2.09961	
-2.10114	
-2.09351	
-2.0874	
-2.0813	
-2.07977	
-2.07977	
-2.0813	
-2.07214	
-2.06604	
-2.06604	
-2.05688	
-2.05994	
-2.06299	
-2.06451	
-2.06909	
-2.06451	
-2.06146	
-2.06757	
-2.07825	
-2.07977	
-2.08282	
-2.08282	
-2.07977	
-2.08282	
-2.07977	
-2.07977	
-2.07062	
-2.06299	
-2.06299	
-2.06604	
-2.06757	
-2.05994	
-2.06146	
-2.06451	
-2.06909	
-2.06604	
-2.06757	
-2.05841	
-2.06146	
-2.06451	
-2.06451	
-2.07367	
-2.07214	
-2.07672	
-2.07214	
-2.07214	
-2.07062	
-2.07367	
-2.06909	
-2.06909	
-2.06909	
-2.07214	
-2.07062	
-2.06909	
-2.07367	
-2.06757	
-2.06909	
-2.07214	
-2.07214	
-2.07062	
-2.06604	
-2.06146	
-2.06604	
-2.07062	
-2.07062	
-2.07062	
-2.07367	
-2.07214	
-2.07367	
-2.07367	
-2.07214	
-2.07214	
-2.07214	
-2.07672	
-2.08282	
-2.07672	
-2.07672	
-2.07214	
-2.07367	
-2.07825	
-2.07367	
-2.07214	
-2.07672	
-2.07062	
-2.07672	
-2.07672	
-2.07062	
-2.07062	
-2.07672	
-2.07367	
-2.07367	
-2.0813	
-2.0813	
-2.08435	
-2.0874	
-2.09198	
-2.09198	
-2.09808	
-2.09808	
-2.09351	
-2.08893	
-2.08435	
-2.0874	
-2.08435	
-2.08282	
-2.06909	
-2.06909	
-2.07062	
-2.07977	
-2.07825	
-2.08435	
-2.08435	
-2.07977	
-2.07214	
-2.07977	
-2.07977	
-2.07977	
-2.07825	
-2.07977	
-2.07214	
-2.06451	
-2.05841	
-2.05688	
-2.06299	
-2.06146	
-2.06604	
-2.06146	
-2.05994	
-2.06604	
-2.06757	
-2.06604	
-2.06299	
-2.06604	
-2.06146	
-2.06146	
-2.06299	
-2.06146	
-2.06299	
-2.06299	
-2.06146	
-2.06146	
-2.06604	
-2.06299	
-2.05994	
-2.06451	
-2.06909	
-2.08282	
-2.09198	
-2.09503	
-2.09961	
-2.09503	
-2.09198	
-2.08588	
-2.07977	
-2.06909	
-2.07214	
-2.07214	
-2.07367	
-2.07977	
-2.06299	
-2.05231	
-2.05231	
-2.05841	
-2.05994	
-2.05994	
-2.05841	
-2.05841	
-2.06299	
-2.06757	
-2.06604	
-2.06909	
-2.07062	
-2.07214	
-2.07214	
-2.07672	
-2.07214	
-2.07672	
-2.07825	
-2.07672	
-2.07672	
-2.07977	
-2.06757	
-2.05994	
-2.05688	
-2.07062	
-2.08588	
-2.09045	
-2.08893	
-2.09045	
-2.08893	
-2.08588	
-2.07977	
-2.06757	
-2.05688	
-2.05688	
-2.05383	
-2.05536	
-2.05841	
-2.06146	
-2.06604	
-2.05688	
-2.05536	
-2.05536	
-2.05841	
-2.06146	
-2.05994	
-2.06299	
-2.07062	
-2.07977	
-2.07672	
-2.07062	
-2.06451	
-2.06451	
-2.06146	
-2.06299	
-2.06146	
-2.05383	
-2.05231	
-2.06299	
-2.06604	
-2.06757	
-2.07367	
-2.07367	
-2.07367	
-2.06909	
-2.07214	
-2.06757	
-2.06757	
-2.06757	
-2.06757	
-2.06757	
-2.06909	
-2.07214	
-2.07214	
-2.06909	
-2.06757	
-2.07977	
-2.09045	
-2.09808	
-2.09656	
-2.09961	
-2.09045	
-2.07672	
-2.06146	
-2.05841	
-2.05688	
-2.05841	
-2.06451	
-2.07214	
-2.07062	
-2.06909	
-2.06146	
-2.05383	
-2.05688	
-2.06451	
-2.06604	
-2.06757	
-2.06909	
-2.07062	
-2.07214	
-2.07367	
-2.08282	
-2.0813	
-2.07672	
-2.07062	
-2.06146	
-2.05688	
-2.05078	
-2.05231	
-2.05841	
-2.05688	
-2.05994	
-2.06451	
-2.06299	
-2.06299	
-2.07367	
-2.06909	
-2.07825	
-2.08435	
-2.08282	
-2.08282	
-2.07062	
-2.06909	
-2.06604	
-2.06604	
-2.07062	
-2.07214	
-2.07214	
-2.07672	
-2.07367	
-2.06451	
-2.06299	
-2.06604	
-2.06146	
-2.06299	
-2.06604	
-2.06604	
-2.06451	
-2.06604	
-2.06909	
-2.07825	
-2.08282	
-2.08435	
-2.0813	
-2.08435	
-2.0813	
-2.07062	
-2.07214	
-2.06757	
-2.06299	
-2.06146	
-2.06604	
-2.07672	
-2.07367	
-2.06757	
-2.06757	
-2.05688	
-2.05383	
-2.06299	
-2.06757	
-2.07062	
-2.07367	
-2.07825	
-2.07825	
-2.0813	
-2.08435	
-2.07825	
-2.07214	
-2.06604	
-2.06604	
-2.07062	
-2.07214	
-2.07672	
-2.07214	
-2.07367	
-2.07062	
-2.06604	
-2.06451	
-2.06604	
-2.06909	
-2.06757	
-2.07214	
-2.07672	
-2.07214	
-2.07062	
-2.06757	
-2.07062	
-2.07672	
-2.0813	
-2.0813	
-2.07825	
-2.0813	
-2.07977	
-2.07977	
-2.07977	
-2.07825	
-2.07825	
-2.08588	
-2.09503	
-2.09503	
-2.10419	
-2.09961	
-2.09961	
-2.0874	
-2.0874	
-2.08893	
-2.08435	
-2.07367	
-2.06909	
-2.06604	
-2.05536	
-2.06604	
-2.07214	
-2.07214	
-2.07214	
-2.07214	
-2.07214	
-2.07672	
-2.06604	
-2.07214	
-2.08282	
-2.08282	
-2.0813	
-2.07825	
-2.07977	
-2.07672	
-2.06909	
-2.07062	
-2.06909	
-2.07214	
-2.07825	
-2.07825	
-2.08282	
-2.07672	
-2.07672	
-2.07214	
-2.06909	
-2.07214	
-2.07214	
-2.07825	
-2.07062	
-2.07367	
-2.07062	
-2.0813	
-2.08282	
-2.08893	
-2.09198	
-2.09045	
-2.09656	
-2.09808	
-2.10114	
-2.09503	
-2.09198	
-2.08893	
-2.09045	
-2.08588	
-2.0813	
-2.07825	
-2.08435	
-2.0874	
-2.08435	
-2.08435	
-2.08282	
-2.07825	
-2.07367	
-2.07977	
-2.07825	
-2.0813	
-2.07367	
-2.07672	
-2.08435	
-2.0874	
-2.0874	
-2.08588	
-2.08435	
-2.0813	
-2.08893	
-2.09198	
-2.09351	
-2.09198	
-2.0874	
-2.08282	
-2.08435	
-2.08282	
-2.07977	
-2.08435	
-2.08435	
-2.0813	
-2.08435	
-2.0874	
-2.09351	
-2.09808	
-2.09961	
-2.10876	
-2.10876	
-2.11182	
-2.12097	
-2.1347	
-2.14691	
-2.15149	
-2.14081	
-2.13165	
-2.12097	
-2.09656	
-2.07214	
-2.05994	
-2.04773	
-2.0462	
-2.06146	
-2.06451	
-2.05994	
-2.06604	
-2.06757	
-2.07672	
-2.0813	
-2.08588	
-2.08588	
-2.09045	
-2.09503	
-2.09045	
-2.0874	
-2.09198	
-2.09351	
-2.09198	
-2.09351	
-2.09351	
-2.08893	
-2.0874	
-2.0874	
-2.08588	
-2.08893	
-2.09045	
-2.09656	
-2.09198	
-2.09656	
-2.10114	
-2.10419	
-2.10419	
-2.09961	
-2.09656	
-2.09351	
-2.09503	
-2.09351	
-2.08893	
-2.08893	
-2.09198	
-2.09045	
-2.09808	
-2.09961	
-2.09808	
-2.09961	
-2.09656	
-2.09961	
-2.09961	
-2.09808	
-2.10266	
-2.10114	
-2.09808	
-2.10114	
-2.09808	
-2.09808	
-2.09961	
-2.09808	
-2.09961	
-2.09045	
-2.09656	
-2.09351	
-2.09351	
-2.08588	
-2.08435	
-2.08282	
-2.08588	
-2.08893	
-2.0874	
-2.09045	
-2.09198	
-2.09808	
-2.09808	
-2.10114	
-2.10266	
-2.10266	
-2.10876	
-2.10876	
-2.09351	
-2.09808	
-2.09503	
-2.09808	
-2.09351	
-2.09961	
-2.11334	
-2.11639	
-2.11945	
-2.11792	
-2.11639	
-2.10876	
-2.09808	
-2.09351	
-2.09351	
-2.09045	
-2.08893	
-2.09198	
-2.0874	
-2.08282	
-2.07977	
-2.0813	
-2.07672	
-2.06299	
-2.06604	
-2.07672	
-2.08282	
-2.0874	
-2.09503	
-2.09808	
-2.10724	
-2.10724	
-2.10266	
-2.09656	
-2.09045	
-2.09503	
-2.09198	
-2.08893	
-2.09045	
-2.08282	
-2.08282	
-2.07977	
-2.08435	
-2.09198	
-2.07825	
-2.07062	
-2.07062	
-2.07825	
-2.08588	
-2.09351	
-2.09045	
-2.08893	
-2.09045	
-2.09045	
-2.0874	
-2.0874	
-2.0874	
-2.08893	
-2.09198	
-2.09045	
-2.09198	
-2.09045	
-2.0874	
-2.0874	
-2.09045	
-2.09045	
-2.08893	
-2.08893	
-2.08588	
-2.08893	
-2.09045	
-2.09656	
-2.09656	
-2.09198	
-2.09045	
-2.09808	
-2.09961	
-2.10266	
-2.10724	
-2.10266	
-2.10724	
-2.09808	
-2.09961	
-2.09961	
-2.09808	
-2.09656	
-2.0874	
-2.09351	
-2.10724	
-2.11639	
-2.11334	
-2.11487	
-2.10876	
-2.10419	
-2.09961	
-2.09961	
-2.09351	
-2.08893	
-2.09045	
-2.09503	
-2.08588	
-2.0813	
-2.07672	
-2.06909	
-2.07825	
-2.06757	
-2.06299	
-2.06909	
-2.07825	
-2.08282	
-2.08282	
-2.08893	
-2.10114	
-2.10724	
-2.11182	
-2.11487	
-2.10419	
-2.10266	
-2.09656	
-2.09045	
-2.08282	
-2.0813	
-2.08282	
-2.08435	
-2.09045	
-2.10114	
-2.09961	
-2.09961	
-2.10266	
-2.09808	
-2.09808	
-2.09808	
-2.10266	
-2.09656	
-2.09351	
-2.09656	
-2.09961	
-2.09656	
-2.09961	
-2.10419	
-2.10419	
-2.11334	
-2.11487	
-2.11639	
-2.11945	
-2.11334	
-2.10266	
-2.10876	
-2.11945	
-2.1225	
-2.11182	
-2.10419	
-2.09961	
-2.08893	
-2.07672	
-2.07367	
-2.0813	
-2.08588	
-2.10114	
-2.10114	
-2.09351	
-2.09351	
-2.09656	
-2.09198	
-2.09351	
-2.09351	
-2.09503	
-2.0874	
-2.08282	
-2.07977	
-2.08282	
-2.0874	
-2.09198	
-2.09045	
-2.08893	
-2.08893	
-2.08893	
-2.08893	
-2.09656	
-2.09351	
-2.09808	
-2.09503	
-2.09656	
-2.09198	
-2.09351	
-2.09808	
-2.11487	
-2.12097	
-2.12402	
-2.12097	
-2.12097	
-2.11639	
-2.11182	
-2.09961	
-2.09351	
-2.09351	
-2.08893	
-2.09351	
-2.10724	
-2.10724	
-2.09808	
-2.09351	
-2.09351	
-2.09656	
-2.10114	
-2.09961	
-2.10114	
-2.10114	
-2.10724	
-2.10724	
-2.11029	
-2.11182	
-2.11029	
-2.11029	
-2.11334	
-2.11945	
-2.1225	
-2.12402	
-2.1286	
-2.13165	
-2.13165	
-2.12097	
-2.12097	
-2.11945	
-2.11029	
-2.10266	
-2.09351	
-2.09808	
-2.10266	
-2.10724	
-2.11487	
-2.1225	
-2.12097	
-2.10876	
-2.10724	
-2.09961	
-2.09961	
-2.09656	
-2.09961	
-2.09961	
-2.09808	
-2.09503	
-2.09503	
-2.09503	
-2.08435	
-2.09198	
-2.08435	
-2.08893	
-2.09656	
-2.10876	
-2.10724	
-2.10419	
-2.10114	
-2.11029	
-2.11487	
-2.11334	
-2.10876	
-2.10724	
-2.11182	
-2.11182	
-2.11029	
-2.10724	
-2.10876	
-2.10724	
-2.10876	
-2.10419	
-2.10266	
-2.10724	
-2.10266	
-2.10266	
-2.10266	
-2.11029	
-2.11334	
-2.11182	
-2.10876	
-2.11182	
-2.11029	
-2.10114	
-2.10266	
-2.10266	
-2.09808	
-2.10266	
-2.10266	
-2.10114	
-2.10419	
-2.10876	
-2.11182	
-2.11487	
-2.11639	
-2.11792	
-2.11182	
-2.12097	
-2.11945	
-2.11792	
-2.11945	
-2.1225	
-2.11639	
-2.11487	
-2.11792	
-2.11792	
-2.11945	
-2.12402	
-2.12555	
-2.12708	
-2.12402	
-2.12097	
-2.11639	
-2.11639	
-2.11792	
-2.1225	
-2.13165	
-2.14386	
-2.13165	
-2.12097	
-2.12708	
-2.12555	
-2.11639	
-2.11334	
-2.11639	
-2.11639	
-2.10419	
-2.10419	
-2.09961	
-2.08893	
-2.0813	
-2.07825	
-2.08893	
-2.09656	
-2.09808	
-2.09351	
-2.10114	
-2.09808	
-2.09808	
-2.10114	
-2.10266	
-2.10114	
-2.10266	
-2.10419	
-2.10724	
-2.10724	
-2.11334	
-2.11334	
-2.11487	
-2.11334	
-2.11639	
-2.12402	
-2.1286	
-2.12708	
-2.12555	
-2.12708	
-2.1225	
-2.11639	
-2.11334	
-2.10876	
-2.11334	
-2.11334	
-2.10876	
-2.10419	
-2.11029	
-2.10876	
-2.11029	
-2.11182	
-2.11334	
-2.11487	
-2.11639	
-2.11182	
-2.11029	
-2.11029	
-2.11945	
-2.12402	
-2.12402	
-2.12097	
-2.13318	
-2.1347	
-2.13318	
-2.13623	
-2.13623	
-2.1225	
-2.12402	
-2.11182	
-2.10876	
-2.10266	
-2.09961	
-2.09503	
-2.09656	
-2.09808	
-2.11182	
-2.11792	
-2.12402	
-2.11945	
-2.11792	
-2.11182	
-2.09656	
-2.09503	
-2.09656	
-2.09808	
-2.10114	
-2.11639	
-2.11487	
-2.11029	
-2.10419	
-2.10419	
-2.10266	
-2.10419	
-2.10724	
-2.10266	
-2.10114	
-2.10114	
-2.10419	
-2.10724	
-2.10876	
-2.10419	
-2.09961	
-2.10114	
-2.10724	
-2.10876	
-2.10419	
-2.10876	
-2.10876	
-2.11182	
-2.11334	
-2.11487	
-2.11792	
-2.11945	
-2.11945	
-2.12708	
-2.13013	
-2.13013	
-2.12097	
-2.10266	
-2.10266	
-2.09961	
-2.09656	
-2.09656	
-2.09961	
-2.10114	
-2.10419	
-2.11182	
-2.11792	
-2.11792	
-2.11639	
-2.12097	
-2.11334	
-2.10876	
-2.10876	
-2.11182	
-2.10724	
-2.11182	
-2.11182	
-2.11487	
-2.11792	
-2.12097	
-2.12708	
-2.12708	
-2.12555	
-2.12097	
-2.12097	
-2.11334	
-2.11334	
-2.11334	
-2.11334	
-2.11029	
-2.10266	
-2.10114	
-2.10114	
-2.10419	
-2.09656	
-2.09808	
-2.10724	
-2.11334	
-2.11487	
-2.11029	
-2.11182	
-2.11487	
-2.11334	
-2.11029	
-2.10419	
-2.10266	
-2.09808	
-2.09656	
-2.09808	
-2.09961	
-2.10266	
-2.10266	
-2.10266	
-2.10876	
-2.11182	
-2.12097	
-2.12708	
-2.12708	
-2.1225	
-2.11945	
-2.11792	
-2.11487	
-2.11029	
-2.10419	
-2.10114	
-2.10114	
-2.10266	
-2.11182	
-2.10724	
-2.10266	
-2.10114	
-2.10419	
-2.10419	
-2.10114	
-2.10266	
-2.10419	
-2.11029	
-2.11029	
-2.10419	
-2.10724	
-2.10876	
-2.11182	
-2.11487	
-2.11945	
-2.11792	
-2.11792	
-2.11792	
-2.12097	
-2.12097	
-2.12402	
-2.1225	
-2.11334	
-2.11182	
-2.11334	
-2.11487	
-2.11334	
-2.11792	
-2.11334	
-2.11334	
-2.10724	
-2.10266	
-2.09961	
-2.10114	
-2.10724	
-2.11029	
-2.10876	
-2.1225	
-2.1286	
-2.12708	
-2.13318	
-2.13013	
-2.13013	
-2.12708	
-2.12402	
-2.11945	
-2.11639	
-2.11334	
-2.10876	
-2.09808	
-2.09045	
-2.0874	
-2.08588	
-2.08893	
-2.09503	
-2.09961	
-2.10724	
-2.10724	
-2.10724	
-2.10876	
-2.11182	
-2.11334	
-2.11334	
-2.11487	
-2.11182	
-2.10876	
-2.09961	
-2.10114	
-2.11029	
-2.10724	
-2.10876	
-2.10876	
-2.10724	
-2.10724	
-2.10876	
-2.10876	
-2.11182	
-2.10876	
-2.10419	
-2.10266	
-2.09961	
-2.10114	
-2.10876	
-2.11334	
-2.11639	
-2.11334	
-2.11334	
-2.11334	
-2.11639	
-2.11029	
-2.11639	
-2.11182	
-2.11029	
-2.11334	
-2.11639	
-2.11792	
-2.11945	
-2.12402	
-2.12708	
-2.13928	
-2.14081	
-2.1347	
-2.13318	
-2.13318	
-2.13165	
-2.12555	
-2.11792	
-2.11487	
-2.10266	
-2.10266	
-2.10724	
-2.11029	
-2.11029	
-2.11182	
-2.11334	
-2.11182	
-2.11487	
-2.11945	
-2.12097	
-2.12555	
-2.13318	
-2.14081	
-2.14844	
-2.14996	
-2.14539	
-2.14539	
-2.1347	
-2.13013	
-2.12097	
-2.11639	
-2.10876	
-2.09503	
-2.08588	
-2.08435	
-2.09198	
-2.09045	
-2.09656	
-2.09961	
-2.10419	
-2.10419	
-2.10876	
-2.11029	
-2.11487	
-2.11639	
-2.11334	
-2.11639	
-2.11639	
-2.12097	
-2.12708	
-2.12708	
-2.12555	
-2.1286	
-2.13318	
-2.12708	
-2.1225	
-2.12555	
-2.12555	
-2.12555	
-2.1225	
-2.12402	
-2.12708	
-2.1225	
-2.11945	
-2.11334	
-2.11639	
-2.11487	
-2.11945	
-2.12097	
-2.1225	
-2.12402	
-2.1225	
-2.12708	
-2.1286	
-2.12555	
-2.12708	
-2.1286	
-2.12097	
-2.11487	
-2.10876	
-2.10876	
-2.11334	
-2.11792	
-2.12402	
-2.12555	
-2.12555	
-2.12708	
-2.12708	
-2.13013	
-2.13165	
-2.13013	
-2.13928	
-2.13623	
-2.14233	
-2.14844	
-2.16217	
-2.15607	
-2.14996	
-2.14996	
-2.15302	
-2.14844	
-2.14386	
-2.13623	
-2.13623	
-2.13013	
-2.12708	
-2.1286	
-2.12402	
-2.1286	
-2.12555	
-2.12402	
-2.1225	
-2.11639	
-2.11639	
-2.12402	
-2.13623	
-2.14081	
-2.14691	
-2.13623	
-2.13318	
-2.12708	
-2.12555	
-2.12708	
-2.12555	
-2.12097	
-2.12097	
-2.11182	
-2.11182	
-2.12097	
-2.11945	
-2.1286	
-2.1286	
-2.12708	
-2.1286	
-2.13013	
-2.13928	
-2.14081	
-2.14233	
-2.14233	
-2.14233	
-2.13928	
-2.13928	
-2.13623	
-2.14233	
-2.14539	
-2.14844	
-2.14539	
-2.14539	
-2.14233	
-2.13928	
-2.1286	
-2.12402	
-2.1225	
-2.12708	
-2.13013	
-2.1286	
-2.13013	
-2.13013	
-2.13013	
-2.12708	
-2.12708	
-2.13013	
-2.13013	
-2.13318	
-2.13928	
-2.14233	
-2.13928	
-2.13928	
-2.14386	
-2.14081	
-2.14386	
-2.14539	
-2.14996	
-2.14691	
-2.14539	
-2.14691	
-2.14386	
-2.14844	
-2.14996	
-2.14996	
-2.15302	
-2.14996	
-2.14691	
-2.14539	
-2.14539	
-2.14081	
-2.14081	
-2.13623	
-2.13928	
-2.13623	
-2.13165	
-2.13318	
-2.13165	
-2.13318	
-2.14081	
-2.14386	
-2.14844	
-2.15149	
-2.15149	
-2.15759	
-2.1637	
-2.1759	
-2.17896	
-2.17743	
-2.16522	
-2.15302	
-2.14691	
-2.14233	
-2.13318	
-2.13623	
-2.13928	
-2.14081	
-2.15149	
-2.14844	
-2.14539	
-2.13623	
-2.13318	
-2.14081	
-2.14691	
-2.14844	
-2.14844	
-2.15607	
-2.14844	
-2.14844	
-2.14996	
-2.15302	
-2.14996	
-2.1347	
-2.12708	
-2.12402	
-2.12555	
-2.13013	
-2.12555	
-2.11945	
-2.11945	
-2.12555	
-2.13165	
-2.13928	
-2.14539	
-2.14233	
-2.14081	
-2.13623	
-2.14081	
-2.14081	
-2.14386	
-2.14691	
-2.14844	
-2.15454	
-2.15912	
-2.15912	
-2.15607	
-2.15149	
-2.14996	
-2.15149	
-2.14844	
-2.14996	
-2.14996	
-2.14844	
-2.14996	
-2.14539	
-2.13623	
-2.13013	
-2.13928	
-2.13623	
-2.13928	
-2.13318	
-2.13165	
-2.13928	
-2.14539	
-2.15149	
-2.14996	
-2.14996	
-2.14844	
-2.14691	
-2.14233	
-2.14233	
-2.14539	
-2.14386	
-2.14233	
-2.13623	
-2.13928	
-2.14539	
-2.14233	
-2.14844	
-2.15149	
-2.15454	
-2.15302	
-2.14996	
-2.14386	
-2.13623	
-2.13318	
-2.13318	
-2.13165	
-2.13165	
-2.12402	
-2.13013	
-2.12555	
-2.14081	
-2.15149	
-2.15759	
-2.15912	
-2.15607	
-2.14691	
-2.14081	
-2.12708	
-2.12555	
-2.12708	
-2.13318	
-2.14844	
-2.15302	
-2.14691	
-2.14386	
-2.13928	
-2.13623	
-2.1347	
-2.13318	
-2.14081	
-2.13928	
-2.13318	
-2.13318	
-2.13165	
-2.12555	
-2.12708	
-2.13318	
-2.13623	
-2.14233	
-2.14233	
-2.14081	
-2.14691	
-2.14539	
-2.14539	
-2.14081	
-2.13318	
-2.12555	
-2.13013	
-2.13318	
-2.13318	
-2.12708	
-2.13165	
-2.13318	
-2.13623	
-2.14539	
-2.15149	
-2.14691	
-2.15149	
-2.15302	
-2.15149	
-2.14844	
-2.13928	
-2.14233	
-2.14081	
-2.13318	
-2.1225	
-2.11792	
-2.11792	
-2.11487	
-2.1225	
-2.12555	
-2.1286	
-2.13318	
-2.13623	
-2.14081	
-2.14233	
-2.14539	
-2.14844	
-2.14844	
-2.14996	
-2.15454	
-2.15149	
-2.15302	
-2.14844	
-2.14081	
-2.1286	
-2.11487	
-2.11487	
-2.11792	
-2.11487	
-2.11487	
-2.11792	
-2.12402	
-2.1286	
-2.12708	
-2.13165	
-2.14081	
-2.14539	
-2.14539	
-2.14691	
-2.14691	
-2.14539	
-2.14233	
-2.13318	
-2.13623	
-2.13928	
-2.14844	
-2.15607	
-2.15454	
-2.14691	
-2.14081	
-2.13623	
-2.13623	
-2.13165	
-2.13318	
-2.13165	
-2.13318	
-2.13318	
-2.12708	
-2.13013	
-2.1225	
-2.11639	
-2.11792	
-2.1225	
-2.12402	
-2.1286	
-2.1286	
-2.1286	
-2.12708	
-2.13165	
-2.13318	
-2.13928	
-2.14386	
-2.14539	
-2.14844	
-2.15607	
-2.15302	
-2.14844	
-2.14691	
-2.14539	
-2.14386	
-2.14386	
-2.14081	
-2.1286	
-2.12555	
-2.12555	
-2.1225	
-2.12555	
-2.12708	
-2.1286	
-2.12555	
-2.12708	
-2.13013	
-2.12555	
-2.12402	
-2.13013	
-2.12708	
-2.12555	
-2.12708	
-2.1286	
-2.12708	
-2.12402	
-2.13013	
-2.13013	
-2.1286	
-2.1347	
-2.14386	
-2.14386	
-2.14691	
-2.14539	
-2.13623	
-2.13165	
-2.12708	
-2.12097	
-2.11182	
-2.11945	
-2.12708	
-2.1286	
-2.12555	
-2.12555	
-2.12555	
-2.12402	
-2.1225	
-2.12097	
-2.12555	
-2.12097	
-2.1225	
-2.11639	
-2.11945	
-2.1225	
-2.12555	
-2.1286	
-2.13165	
-2.1347	
-2.13318	
-2.13623	
-2.13623	
-2.14539	
-2.15302	
-2.15607	
-2.15454	
-2.14844	
-2.14233	
-2.12708	
-2.1225	
-2.12097	
-2.11792	
-2.12097	
-2.13318	
-2.1286	
-2.1286	
-2.11945	
-2.11792	
-2.1225	
-2.12555	
-2.1225	
-2.12097	
-2.12708	
-2.13013	
-2.13623	
-2.14386	
-2.14691	
-2.14233	
-2.1347	
-2.13165	
-2.13928	
-2.13013	
-2.12708	
-2.13165	
-2.1286	
-2.12708	
-2.12555	
-2.1286	
-2.1225	
-2.12097	
-2.12097	
-2.12555	
-2.13165	
-2.13318	
-2.13623	
-2.14081	
-2.14233	
-2.14539	
-2.14996	
-2.14844	
-2.14539	
-2.13623	
-2.13013	
-2.13013	
-2.13318	
-2.13165	
-2.13165	
-2.1286	
-2.1225	
-2.1286	
-2.13165	
-2.13165	
-2.13165	
-2.13165	
-2.12555	
-2.13013	
-2.13318	
-2.13318	
-2.13928	
-2.14539	
-2.14844	
-2.15149	
-2.14996	
-2.14691	
-2.15149	
-2.15607	
-2.15607	
-2.15149	
-2.15302	
-2.14996	
-2.14996	
-2.13928	
-2.14233	
-2.13623	
-2.13928	
-2.1347	
-2.13165	
-2.13165	
-2.13318	
-2.1347	
-2.13623	
-2.13165	
-2.13013	
-2.13165	
-2.13318	
-2.14386	
-2.14844	
-2.14691	
-2.14996	
-2.14539	
-2.14081	
-2.14233	
-2.14233	
-2.14386	
-2.14691	
-2.14233	
-2.14233	
-2.14386	
-2.14081	
-2.13928	
-2.1347	
-2.1347	
-2.13928	
-2.14844	
-2.15149	
-2.14996	
-2.14844	
-2.15149	
-2.15454	
-2.15149	
-2.14996	
-2.14996	
-2.15454	
-2.14691	
-2.14386	
-2.13623	
-2.13318	
-2.13165	
-2.13013	
-2.1225	
-2.1286	
-2.13928	
-2.14081	
-2.14233	
-2.14386	
-2.13928	
-2.13623	
-2.13928	
-2.13623	
-2.13928	
-2.14844	
-2.15454	
-2.15302	
-2.16064	
-2.15912	
-2.15302	
-2.15302	
-2.14539	
-2.14233	
-2.14081	
-2.13928	
-2.14844	
-2.14844	
-2.13928	
-2.13165	
-2.12555	
-2.1225	
-2.11487	
-2.11639	
-2.1225	
-2.13013	
-2.1286	
-2.13013	
-2.13928	
-2.13318	
-2.13623	
-2.13928	
-2.14386	
-2.14386	
-2.14386	
-2.14691	
-2.15302	
-2.15149	
-2.14691	
-2.15149	
-2.15149	
-2.14844	
-2.14691	
-2.14691	
-2.14386	
-2.14081	
-2.14386	
-2.14081	
-2.13013	
-2.1225	
-2.11639	
-2.11945	
-2.12402	
-2.1225	
-2.12097	
-2.12097	
-2.11945	
-2.12097	
-2.12555	
-2.1286	
-2.13318	
-2.14081	
-2.14386	
-2.14539	
-2.14691	
-2.14844	
-2.14996	
-2.15454	
-2.15302	
-2.14691	
-2.14233	
-2.13928	
-2.13165	
-2.1347	
-2.13928	
-2.1347	
-2.13013	
-2.12097	
-2.1225	
-2.11945	
-2.12097	
-2.11639	
-2.11792	
-2.11945	
-2.12708	
-2.13013	
-2.1286	
-2.13165	
-2.13013	
-2.1347	
-2.13165	
-2.1347	
-2.1347	
-2.13318	
-2.13928	
-2.13318	
-2.13013	
-2.13013	
-2.13318	
-2.13623	
-2.13318	
-2.13623	
-2.14233	
-2.14691	
-2.16522	
-2.17285	
-2.17438	
-2.1698	
-2.16675	
-2.15454	
-2.14996	
-2.1347	
-2.12097	
-2.11487	
-2.11639	
-2.12402	
-2.11945	
-2.11792	
-2.11334	
-2.11182	
-2.11029	
-2.11639	
-2.11945	
-2.12555	
-2.12555	
-2.13165	
-2.1286	
-2.12555	
-2.13013	
-2.13013	
-2.13165	
-2.12708	
-2.12708	
-2.1286	
-2.13318	
-2.13623	
-2.14233	
-2.14081	
-2.1347	
-2.13013	
-2.13928	
-2.14386	
-2.14233	
-2.14539	
-2.15302	
-2.15759	
-2.15302	
-2.15149	
-2.14844	
-2.14081	
-2.1286	
-2.12097	
-2.11639	
-2.11334	
-2.11487	
-2.11945	
-2.11792	
-2.11792	
-2.11792	
-2.11334	
-2.11487	
-2.11334	
-2.11792	
-2.11792	
-2.1225	
-2.12708	
-2.1286	
-2.12402	
-2.12402	
-2.12708	
-2.12708	
-2.13013	
-2.1347	
-2.13318	
-2.13623	
-2.13623	
-2.13928	
-2.13318	
-2.13318	
-2.1347	
-2.13623	
-2.1347	
-2.14081	
-2.13318	
-2.13165	
-2.13623	
-2.13165	
-2.1347	
-2.13165	
-2.13165	
-2.12708	
-2.12555	
-2.1286	
-2.12555	
-2.12555	
-2.11792	
-2.11945	
-2.13165	
-2.14386	
-2.14844	
-2.14386	
-2.14386	
-2.13928	
-2.1347	
-2.13013	
-2.12708	
-2.1286	
-2.13165	
-2.14691	
-2.15607	
-2.16064	
-2.16064	
-2.16064	
-2.15454	
-2.14844	
-2.14233	
-2.13623	
-2.13928	
-2.13623	
-2.14539	
-2.14081	
-2.11792	
-2.10114	
-2.09045	
-2.09198	
-2.09961	
-2.10114	
-2.10419	
-2.11182	
-2.10419	
-2.11029	
-2.11792	
-2.12097	
-2.11945	
-2.12402	
-2.12402	
-2.12402	
-2.1225	
-2.12708	
-2.12708	
-2.12555	
-2.13013	
-2.12708	
-2.12555	
-2.12708	
-2.12402	
-2.11945	
-2.12097	
-2.13013	
-2.13318	
-2.13165	
-2.1347	
-2.1347	
-2.13623	
-2.13165	
-2.12708	
-2.12555	
-2.1225	
-2.12097	
-2.1225	
-2.12097	
-2.12555	
-2.12402	
-2.1286	
-2.1286	
-2.12708	
-2.12555	
-2.1286	
-2.1286	
-2.13165	
-2.13013	
-2.13013	
-2.13165	
-2.13013	
-2.12708	
-2.13013	
-2.13165	
-2.12555	
-2.12708	
-2.13318	
-2.13013	
-2.12402	
-2.12402	
-2.12555	
-2.13165	
-2.13165	
-2.13318	
-2.13623	
-2.13623	
-2.12708	
-2.12097	
-2.11639	
-2.11792	
-2.11334	
-2.11334	
-2.11334	
-2.12097	
-2.1286	
-2.1347	
-2.13623	
-2.14233	
-2.13928	
-2.14081	
-2.14081	
-2.13928	
-2.14386	
-2.14386	
-2.13928	
-2.13318	
-2.13013	
-2.13165	
-2.14233	
-2.13623	
-2.1286	
-2.12555	
-2.12097	
-2.11029	
-2.10724	
-2.11334	
-2.10724	
-2.10724	
-2.11334	
-2.11792	
-2.11945	
-2.11639	
-2.11792	
-2.11182	
-2.11334	
-2.11487	
-2.11792	
-2.11639	
-2.11182	
-2.11487	
-2.11487	
-2.11487	
-2.11639	
-2.11945	
-2.1225	
-2.12555	
-2.12402	
-2.14081	
-2.14539	
-2.15149	
-2.14996	
-2.14691	
-2.14539	
-2.13623	
-2.13013	
-2.13013	
-2.13318	
-2.13013	
-2.13013	
-2.12555	
-2.11639	
-2.11639	
-2.11487	
-2.11639	
-2.11945	
-2.11487	
-2.11029	
-2.10876	
-2.10724	
-2.11182	
-2.11792	
-2.11945	
-2.12097	
-2.11945	
-2.12097	
-2.12097	
-2.12402	
-2.13165	
-2.1286	
-2.14081	
-2.14386	
-2.13928	
-2.14233	
-2.13623	
-2.13013	
-2.1286	
-2.13165	
-2.13623	
-2.13623	
-2.13318	
-2.11945	
-2.11334	
-2.10724	
-2.11334	
-2.11639	
-2.1225	
-2.12097	
-2.1225	
-2.13318	
-2.13928	
-2.13928	
-2.14691	
-2.15302	
-2.15607	
-2.15302	
-2.14844	
-2.14691	
-2.14233	
-2.1347	
-2.13013	
-2.11945	
-2.11182	
-2.09656	
-2.09808	
-2.10266	
-2.10114	
-2.11029	
-2.11639	
-2.11792	
-2.11945	
-2.12555	
-2.1286	
-2.1286	
-2.1225	
-2.12555	
-2.13165	
-2.13013	
-2.1347	
-2.13165	
-2.13165	
-2.12555	
-2.1225	
-2.12402	
-2.1286	
-2.1286	
-2.12708	
-2.1225	
-2.12555	
-2.1286	
-2.13013	
-2.12708	
-2.12555	
-2.13013	
-2.14081	
-2.15149	
-2.15454	
-2.14996	
-2.14996	
-2.14996	
-2.14386	
-2.13623	
-2.12402	
-2.11792	
-2.11792	
-2.11792	
-2.12402	
-2.12555	
-2.11945	
-2.11639	
-2.11792	
-2.1225	
-2.1286	
-2.13165	
-2.1286	
-2.1286	
-2.1286	
-2.1225	
-2.1286	
-2.1347	
-2.13013	
-2.14081	
-2.14386	
-2.14233	
-2.13318	
-2.1286	
-2.13013	
-2.13623	
-2.1347	
-2.14081	
-2.14691	
-2.14844	
-2.14386	
-2.13318	
-2.1286	
-2.12708	
-2.13013	
-2.1225	
-2.11945	
-2.11487	
-2.11182	
-2.10419	
-2.09808	
-2.09656	
-2.10266	
-2.10724	
-2.11029	
-2.10419	
-2.11029	
-2.11182	
-2.11639	
-2.11945	
-2.12097	
-2.12097	
-2.12402	
-2.1225	
-2.12402	
-2.12402	
-2.1225	
-2.11945	
-2.12555	
-2.12555	
-2.12402	
-2.1225	
-2.11945	
-2.11487	
-2.11945	
-2.11945	
-2.12402	
-2.12097	
-2.11792	
-2.11945	
-2.1225	
-2.12555	
-2.12402	
-2.12708	
-2.12402	
-2.13165	
-2.13318	
-2.1347	
-2.1347	
-2.1286	
-2.1225	
-2.12708	
-2.1286	
-2.12708	
-2.12402	
-2.1225	
-2.12555	
-2.12402	
-2.12402	
-2.12555	
-2.12097	
-2.11334	
-2.11487	
-2.12097	
-2.12708	
-2.12708	
-2.13013	
-2.13013	
-2.1286	
-2.1286	
-2.12097	
-2.11945	
-2.12402	
-2.12708	
-2.12708	
-2.13623	
-2.13928	
-2.13928	
-2.14081	
-2.13318	
-2.13165	
-2.12708	
-2.12555	
-2.11792	
-2.12555	
-2.13623	
-2.13318	
-2.14539	
-2.15607	
-2.15149	
-2.15149	
-2.14539	
-2.13928	
-2.13623	
-2.12555	
-2.1225	
-2.12097	
-2.11334	
-2.11945	
-2.11639	
-2.10724	
-2.11334	
-2.10876	
-2.10419	
-2.10266	
-2.10114	
-2.10266	
-2.11029	
-2.11639	
-2.11487	
-2.11334	
-2.11334	
-2.11792	
-2.11487	
-2.11945	
-2.11639	
-2.11945	
-2.11945	
-2.12097	
-2.11945	
-2.1225	
-2.12402	
-2.12555	
-2.12555	
-2.12708	
-2.12708	
-2.12402	
-2.12402	
-2.12555	
-2.12402	
-2.12708	
-2.12402	
-2.12708	
-2.1225	
-2.13165	
-2.12708	
-2.13013	
-2.1286	
-2.13165	
-2.13013	
-2.13928	
-2.14233	
-2.13623	
-2.13013	
-2.13013	
-2.12708	
-2.12555	
-2.1225	
-2.12402	
-2.11487	
-2.11182	
-2.11639	
-2.11334	
-2.10266	
-2.11029	
-2.11639	
-2.12097	
-2.1225	
-2.11945	
-2.1225	
-2.11945	
-2.12402	
-2.12097	
-2.1225	
-2.12097	
-2.11792	
-2.11792	
-2.12402	
-2.1286	
-2.1286	
-2.12555	
-2.12097	
-2.11945	
-2.12097	
-2.1225	
-2.12708	
-2.11792	
-2.11639	
-2.12097	
-2.12708	
-2.13623	
-2.14233	
-2.14691	
-2.14691	
-2.15759	
-2.15912	
-2.16217	
-2.16064	
-2.15912	
-2.14996	
-2.13928	
-2.13318	
-2.13013	
-2.12555	
-2.11639	
-2.11029	
-2.11334	
-2.11487	
-2.11182	
-2.10419	
-2.09503	
-2.09808	
-2.10114	
-2.10724	
-2.10724	
-2.10419	
-2.11334	
-2.11334	
-2.11487	
-2.11334	
-2.11334	
-2.11182	
-2.11792	
-2.11945	
-2.11945	
-2.1225	
-2.12097	
-2.12555	
-2.12402	
-2.12708	
-2.13013	
-2.13165	
-2.13318	
-2.1286	
-2.12555	
-2.12708	
-2.1225	
-2.12402	
-2.12402	
-2.12402	
-2.12555	
-2.12402	
-2.13013	
-2.13318	
-2.1347	
-2.12708	
-2.12402	
-2.12555	
-2.12555	
-2.1225	
-2.1225	
-2.12555	
-2.14081	
-2.13623	
-2.13623	
-2.12555	
-2.12097	
-2.11639	
-2.12097	
-2.11792	
-2.11639	
-2.12402	
-2.1286	
-2.13623	
-2.13928	
-2.13013	
-2.1347	
-2.13013	
-2.12708	
-2.12402	
-2.1225	
-2.11792	
-2.11487	
-2.10876	
-2.10724	
-2.11182	
-2.10724	
-2.10724	
-2.10419	
-2.10724	
-2.11182	
-2.11792	
-2.11334	
-2.11792	
-2.11792	
-2.12097	
-2.11334	
-2.11487	
-2.11792	
-2.11945	
-2.1225	
-2.1225	
-2.12708	
-2.13013	
-2.13165	
-2.13013	
-2.12555	
-2.1286	
-2.11945	
-2.11792	
-2.11792	
-2.11945	
-2.11792	
-2.11487	
-2.11182	
-2.11792	
-2.11792	
-2.12097	
-2.1225	
-2.11945	
-2.11639	
-2.11639	
-2.11792	
-2.11792	
-2.11792	
-2.11334	
-2.11792	
-2.11487	
-2.11639	
-2.11487	
-2.11334	
-2.11182	
-2.11792	
-2.1286	
-2.13013	
-2.13013	
-2.13165	
-2.1347	
-2.13318	
-2.13318	
-2.13013	
-2.13318	
-2.13013	
-2.13165	
-2.1286	
-2.1225	
-2.11945	
-2.09351	
-2.09045	
-2.10266	
-2.11029	
-2.10724	
-2.10266	
-2.10876	
-2.11487	
-2.11945	
-2.12402	
-2.12555	
-2.1225	
-2.12097	
-2.1225	
-2.12402	
-2.12097	
-2.11639	
-2.11487	
-2.11639	
-2.11487	
-2.11639	
-2.12097	
-2.12097	
-2.12097	
-2.13928	
-2.14539	
-2.14233	
-2.13928	
-2.13165	
-2.13165	
-2.1225	
-2.11029	
-2.10266	
-2.10876	
-2.11029	
-2.12402	
-2.12708	
-2.13165	
-2.1286	
-2.12097	
-2.12708	
-2.12708	
-2.12555	
-2.11487	
-2.11487	
-2.11639	
-2.11334	
-2.11945	
-2.12097	
-2.11487	
-2.11182	
-2.11182	
-2.11182	
-2.11639	
-2.11945	
-2.11639	
-2.11487	
-2.11182	
-2.11487	
-2.12097	
-2.12555	
-2.12402	
-2.12708	
-2.1286	
-2.1286	
-2.12708	
-2.12402	
-2.12402	
-2.12708	
-2.12402	
-2.1286	
-2.1347	
-2.14386	
-2.13928	
-2.14233	
-2.13623	
-2.11792	
-2.11182	
-2.10876	
-2.11792	
-2.1225	
-2.11639	
-2.11182	
-2.11639	
-2.12097	
-2.12402	
-2.12555	
-2.13165	
-2.12708	
-2.1225	
-2.12555	
-2.12097	
-2.11334	
-2.10876	
-2.10724	
-2.10724	
-2.10724	
-2.10266	
-2.11334	
-2.11029	
-2.10876	
-2.11334	
-2.11639	
-2.11792	
-2.12402	
-2.1225	
-2.11639	
-2.12402	
-2.11639	
-2.11945	
-2.11945	
-2.11945	
-2.1225	
-2.12097	
-2.1225	
-2.12097	
-2.1225	
-2.1225	
-2.11792	
-2.11334	
-2.11792	
-2.11945	
-2.12097	
-2.1225	
-2.12708	
-2.12708	
-2.13318	
-2.13623	
-2.13165	
-2.1347	
-2.12402	
-2.11945	
-2.12097	
-2.12555	
-2.12555	
-2.13928	
-2.14386	
-2.14691	
-2.14539	
-2.13165	
-2.13013	
-2.1225	
-2.11792	
-2.11487	
-2.11487	
-2.11334	
-2.12097	
-2.12402	
-2.12708	
-2.12402	
-2.11639	
-2.10876	
-2.09961	
-2.10724	
-2.11487	
-2.11487	
-2.11792	
-2.11945	
-2.11487	
-2.11639	
-2.11945	
-2.11487	
-2.11639	
-2.11792	
-2.1225	
-2.12097	
-2.1225	
-2.12402	
-2.12555	
-2.13013	
-2.13623	
-2.14081	
-2.13318	
-2.13165	
-2.13623	
-2.13013	
-2.12402	
-2.11945	
-2.11487	
-2.11792	
-2.11029	
-2.10266	
-2.09961	
-2.10114	
-2.09961	
-2.09198	
-2.09503	
-2.10419	
-2.10876	
-2.11029	
-2.11639	
-2.11334	
-2.11029	
-2.11182	
-2.11182	
-2.11487	
-2.11487	
-2.12097	
-2.1286	
-2.12402	
-2.12708	
-2.12708	
-2.12402	
-2.12402	
-2.11945	
-2.11945	
-2.11487	
-2.11487	
-2.11182	
-2.11945	
-2.11334	
-2.11487	
-2.11487	
-2.11334	
-2.11639	
-2.11182	
-2.11029	
-2.11487	
-2.11792	
-2.12097	
-2.12097	
-2.1225	
-2.11029	
-2.10114	
-2.11334	
-2.11792	
-2.11639	
-2.12402	
-2.1225	
-2.1286	
-2.13013	
-2.1286	
-2.1286	
-2.1286	
-2.12708	
-2.12555	
-2.11945	
-2.11334	
-2.10419	
-2.09808	
-2.11029	
-2.11792	
-2.12708	
-2.1347	
-2.13013	
-2.11792	
-2.11487	
-2.11487	
-2.11334	
-2.10724	
-2.09808	
-2.10419	
-2.11487	
-2.11487	
-2.11029	
-2.10876	
-2.10876	
-2.11334	
-2.10876	
-2.10724	
-2.10266	
-2.10724	
-2.09961	
-2.10114	
-2.10419	
-2.11182	
-2.10876	
-2.11029	
-2.10876	
-2.10724	
-2.10114	
-2.10266	
-2.09808	
-2.10114	
-2.10419	
-2.10419	
-2.09961	
-2.10876	
-2.11334	
-2.1225	
-2.11945	
-2.11639	
-2.11334	
-2.11334	
-2.11182	
-2.11029	
-2.10876	
-2.10876	
-2.10266	
-2.10114	
-2.10266	
-2.10876	
-2.10724	
-2.10266	
-2.09961	
-2.09961	
-2.10419	
-2.10876	
-2.10876	
-2.10266	
-2.10419	
-2.10724	
-2.11029	
-2.11487	
-2.12097	
-2.12402	
-2.11792	
-2.12097	
-2.11945	
-2.1225	
-2.11945	
-2.11639	
-2.11945	
-2.11792	
-2.11945	
-2.11945	
-2.11639	
-2.09961	
-2.09503	
-2.09351	
-2.09961	
-2.10876	
-2.11029	
-2.10266	
-2.11029	
-2.10876	
-2.11029	
-2.11334	
-2.11029	
-2.11029	
-2.10724	
-2.11182	
-2.10876	
-2.11029	
-2.11029	
-2.11182	
-2.11029	
-2.11639	
-2.11334	
-2.10876	
-2.10876	
-2.09808	
-2.09198	
-2.08282	
-2.09045	
-2.09503	
-2.09198	
-2.09045	
-2.09503	
-2.09656	
-2.09808	
-2.09808	
-2.10266	
-2.10876	
-2.10419	
-2.11029	
-2.10876	
-2.11029	
-2.11029	
-2.11029	
-2.10876	
-2.10266	
-2.10419	
-2.10876	
-2.10266	
-2.10114	
-2.10419	
-2.10266	
-2.10419	
-2.10724	
-2.10266	
-2.10724	
-2.10266	
-2.09808	
-2.10876	
-2.10419	
-2.11029	
-2.11182	
-2.11029	
-2.10876	
-2.11029	
-2.11487	
-2.10419	
-2.11182	
-2.11334	
-2.11182	
-2.10876	
-2.10724	
-2.10876	
-2.10876	
-2.11182	
-2.10724	
-2.10724	
-2.10114	
-2.10724	
-2.10419	
-2.10419	
-2.10724	
-2.11029	
-2.10876	
-2.11029	
-2.10876	
-2.10876	
-2.11182	
-2.11029	
-2.10724	
-2.10114	
-2.10266	
-2.10876	
-2.11945	
-2.12708	
-2.1286	
-2.13013	
-2.13013	
-2.12708	
-2.11945	
-2.11334	
-2.11792	
-2.1225	
-2.11792	
-2.12555	
-2.13318	
-2.12708	
-2.11792	
-2.10876	
-2.10266	
-2.09503	
-2.09045	
-2.07825	
-2.09045	
-2.11182	
-2.12097	
-2.11792	
-2.11945	
-2.11639	
-2.11639	
-2.11182	
-2.09808	
-2.0874	
-2.08282	
-2.08893	
-2.08893	
-2.09198	
-2.09351	
-2.09351	
-2.09961	
-2.09503	
-2.09351	
-2.09656	
-2.09656	
-2.09503	
-2.09961	
-2.10266	
-2.10724	
-2.10419	
-2.09808	
-2.09503	
-2.09808	
-2.09503	
-2.10724	
-2.10419	
-2.10114	
-2.10266	
-2.10419	
-2.10419	
-2.10419	
-2.10419	
-2.10724	
-2.11334	
-2.11029	
-2.11029	
-2.10876	
-2.10724	
-2.10419	
-2.10876	
-2.11639	
-2.12097	
-2.12097	
-2.11945	
-2.1225	
-2.1225	
-2.1225	
-2.11945	
-2.12097	
-2.11945	
-2.1225	
-2.12402	
-2.12708	
-2.12097	
-2.11334	
-2.09656	
-2.09503	
-2.09808	
-2.10266	
-2.10876	
-2.11029	
-2.11182	
-2.11639	
-2.11487	
-2.10876	
-2.10876	
-2.11182	
-2.11945	
-2.1225	
-2.1286	
-2.13928	
-2.14386	
-2.15302	
-2.15302	
-2.14996	
-2.14081	
-2.12708	
-2.10876	
-2.09503	
-2.09045	
-2.08588	
-2.07977	
-2.07367	
-2.0874	
-2.09656	
-2.09961	
-2.10266	
-2.10266	
-2.09808	
-2.10419	
-2.09503	
-2.09808	
-2.10724	
-2.10724	
-2.11029	
-2.11029	
-2.11182	
-2.10876	
-2.10876	
-2.11182	
-2.11334	
-2.11487	
-2.11945	
-2.11334	
-2.11182	
-2.11639	
-2.11334	
-2.1225	
-2.1225	
-2.12555	
-2.1225	
-2.11945	
-2.12402	
-2.1286	
-2.1286	
-2.12402	
-2.12555	
-2.13013	
-2.13165	
-2.1286	
-2.1286	
-2.11945	
-2.11334	
-2.11487	
-2.11792	
-2.11792	
-2.11639	
-2.10724	
-2.09961	
-2.09656	
-2.09656	
-2.09503	
-2.10114	
-2.10419	
-2.09808	
-2.09961	
-2.10419	
-2.10724	
-2.10114	
-2.11029	
-2.10876	
-2.10724	
-2.11639	
-2.12555	
-2.14081	
-2.14691	
-2.15454	
-2.15302	
-2.14691	
-2.14081	
-2.12708	
-2.11792	
-2.11182	
-2.09503	
-2.09045	
-2.09198	
-2.09198	
-2.09351	
-2.10114	
-2.09656	
-2.09656	
-2.10419	
-2.10724	
-2.11487	
-2.10419	
-2.11639	
-2.12402	
-2.13013	
-2.1286	
-2.13013	
-2.12555	
-2.1225	
-2.11639	
-2.10876	
-2.10266	
-2.10114	
-2.10419	
-2.11639	
-2.11029	
-2.10266	
-2.09808	
-2.10876	
-2.11182	
-2.11639	
-2.11334	
-2.11182	
-2.10876	
-2.11029	
-2.11029	
-2.11945	
-2.12097	
-2.12555	
-2.13013	
-2.1286	
-2.13165	
-2.13318	
-2.13928	
-2.13928	
-2.13165	
-2.12708	
-2.12402	
-2.11487	
-2.10114	
-2.09503	
-2.08893	
-2.09045	
-2.09045	
-2.10724	
-2.10876	
-2.11639	
-2.12555	
-2.12708	
-2.13013	
-2.13623	
-2.1347	
-2.14081	
-2.13623	
-2.13165	
-2.12402	
-2.11945	
-2.11334	
-2.09656	
-2.09503	
-2.09503	
-2.09351	
-2.09503	
-2.10114	
-2.09656	
-2.10266	
-2.10876	
-2.10419	
-2.10724	
-2.11029	
-2.10876	
-2.11334	
-2.11487	
-2.11792	
-2.11487	
-2.11182	
-2.11945	
-2.12097	
-2.1225	
-2.1225	
-2.12555	
-2.1286	
-2.14233	
-2.14844	
-2.14996	
-2.14844	
-2.14386	
-2.13928	
-2.14081	
-2.13013	
-2.12097	
-2.10876	
-2.10876	
-2.11639	
-2.12555	
-2.13013	
-2.12708	
-2.11182	
-2.09656	
-2.08435	
-2.08893	
-2.09656	
-2.11029	
-2.11945	
-2.12402	
-2.12708	
-2.1286	
-2.1286	
-2.1225	
-2.12708	
-2.13928	
-2.13623	
-2.13928	
-2.14081	
-2.14691	
-2.14691	
-2.15302	
-2.13928	
-2.13165	
-2.12402	
-2.11792	
-2.11029	
-2.10419	
-2.10876	
-2.10266	
-2.09656	
-2.10724	
-2.11029	
-2.10266	
-2.10876	
-2.11639	
-2.11945	
-2.11792	
-2.11792	
-2.11792	
-2.13623	
-2.15759	
-2.17133	
-2.17438	
-2.17285	
-2.16675	
-2.1637	
-2.15912	
-2.14844	
-2.13623	
-2.13318	
-2.13013	
-2.12097	
-2.11639	
-2.09351	
-2.08282	
-2.06757	
-2.07672	
-2.10114	
-2.11029	
-2.13165	
-2.14081	
-2.13623	
-2.14539	
-2.14081	
-2.13318	
-2.1225	
-2.11487	
-2.11182	
-2.11029	
-2.11182	
-2.12708	
-2.12555	
-2.12708	
-2.12097	
-2.1225	
-2.12402	
-2.13165	
-2.13318	
-2.13013	
-2.12555	
-2.1286	
-2.12708	
-2.12402	
-2.1225	
-2.12097	
-2.12555	
-2.12097	
-2.11487	
-2.11487	
-2.1225	
-2.12555	
-2.12555	
-2.11945	
-2.11487	
-2.11029	
-2.11334	
-2.11792	
-2.12555	
-2.12555	
-2.1286	
-2.13165	
-2.13318	
-2.1347	
-2.13623	
-2.14386	
-2.13623	
-2.13165	
-2.1347	
-2.13165	
-2.13013	
-2.12555	
-2.11792	
-2.11487	
-2.10266	
-2.09808	
-2.10419	
-2.10876	
-2.11639	
-2.11945	
-2.12402	
-2.12708	
-2.12555	
-2.1225	
-2.1225	
-2.1225	
-2.1225	
-2.12402	
-2.12097	
-2.12097	
-2.1225	
-2.1286	
-2.1286	
-2.13013	
-2.13318	
-2.13165	
-2.13318	
-2.13165	
-2.14081	
-2.14233	
-2.14386	
-2.14539	
-2.14386	
-2.14691	
-2.14233	
-2.13165	
-2.13013	
-2.12708	
-2.13928	
-2.14691	
-2.13928	
-2.12555	
-2.11639	
-2.11945	
-2.11792	
-2.11792	
-2.11487	
-2.11182	
-2.10876	
-2.11029	
-2.10724	
-2.11182	
-2.11334	
-2.11334	
-2.11792	
-2.11945	
-2.11945	
-2.11182	
-2.11334	
-2.11029	
-2.11487	
-2.13013	
-2.14539	
-2.15912	
-2.16217	
-2.16064	
-2.16064	
-2.15149	
-2.14539	
-2.1286	
-2.12402	
-2.12097	
-2.11792	
-2.11639	
-2.11639	
-2.11334	
-2.11029	
-2.09656	
-2.09656	
-2.09198	
-2.09503	
-2.10114	
-2.11487	
-2.11792	
-2.12402	
-2.12402	
-2.11792	
-2.1225	
-2.11945	
-2.11639	
-2.11639	
-2.11792	
-2.11792	
-2.11792	
-2.1225	
-2.12708	
-2.13165	
-2.13165	
-2.13318	
-2.14081	
-2.14691	
-2.14996	
-2.14844	
-2.14539	
-2.14539	
-2.14386	
-2.14081	
-2.13623	
-2.12708	
-2.11029	
-2.09808	
-2.10114	
-2.10724	
-2.10114	
-2.09656	
-2.10266	
-2.11334	
-2.1225	
-2.13013	
-2.12708	
-2.12097	
-2.12555	
-2.13013	
-2.12708	
-2.13623	
-2.13165	
-2.13013	
-2.13013	
-2.13013	
-2.12708	
-2.13318	
-2.13623	
-2.13013	
-2.1347	
-2.13318	
-2.1286	
-2.12708	
-2.14844	
-2.16064	
-2.16064	
-2.15607	
-2.15912	
-2.14081	
-2.12555	
-2.11182	
-2.10266	
-2.09198	
-2.08282	
-2.09198	
-2.10114	
-2.09351	
-2.09503	
-2.09503	
-2.10114	
-2.10724	
-2.11029	
-2.11182	
-2.11029	
-2.11334	
-2.11945	
-2.1225	
-2.12555	
-2.12555	
-2.13013	
-2.1286	
-2.12402	
-2.12097	
-2.11792	
-2.11945	
-2.1225	
-2.11792	
-2.11029	
-2.11029	
-2.11334	
-2.11945	
-2.11792	
-2.11182	
-2.11182	
-2.10876	
-2.10419	
-2.10724	
-2.11029	
-2.11334	
-2.11639	
-2.11639	
-2.11945	
-2.11639	
-2.11945	
-2.11792	
-2.11945	
-2.11792	
-2.11792	
-2.11639	
-2.11792	
-2.12097	
-2.1225	
-2.12097	
-2.1225	
-2.12555	
-2.1225	
-2.12097	
-2.12402	
-2.12708	
-2.1286	
-2.1347	
-2.13928	
-2.14539	
-2.14844	
-2.14539	
-2.14539	
-2.14691	
-2.14996	
-2.14386	
-2.13623	
-2.1286	
-2.13013	
-2.11945	
-2.11182	
-2.10419	
-2.10419	
-2.11029	
-2.09961	
-2.09198	
-2.0874	
-2.09656	
-2.10419	
-2.11182	
-2.10724	
-2.11029	
-2.10114	
-2.10724	
-2.11029	
-2.10876	
-2.11182	
-2.11792	
-2.11639	
-2.11487	
-2.11945	
-2.13165	
-2.14691	
-2.14996	
-2.15149	
-2.14691	
-2.14539	
-2.13928	
-2.13165	
-2.1225	
-2.11792	
-2.12708	
-2.13623	
-2.14081	
-2.13928	
-2.14539	
-2.14539	
-2.16217	
-2.17896	
-2.18201	
-2.17896	
-2.17743	
-2.17285	
-2.15454	
-2.13623	
-2.11334	
-2.10724	
-2.09808	
-2.09045	
-2.08588	
-2.09503	
-2.09351	
-2.0874	
-2.0874	
-2.09198	
-2.09198	
-2.09351	
-2.09656	
-2.10114	
-2.10724	
-2.11029	
-2.10724	
-2.10419	
-2.10419	
-2.10876	
-2.11182	
-2.11334	
-2.11792	
-2.1225	
-2.11945	
-2.1225	
-2.12097	
-2.12708	
-2.1225	
-2.11792	
-2.11945	
-2.11182	
-2.11945	
-2.12708	
-2.11945	
-2.11945	
-2.12097	
-2.12097	
-2.12402	
-2.12402	
-2.12402	
-2.1286	
-2.13318	
-2.13623	
-2.13318	
-2.1286	
-2.12555	
-2.13013	
-2.13165	
-2.1347	
-2.13013	
-2.12555	
-2.12402	
-2.13165	
-2.1286	
-2.13318	
-2.13165	
-2.12097	
-2.11334	
-2.11639	
-2.12402	
-2.11639	
-2.10876	
-2.10724	
-2.11639	
-2.11945	
-2.12555	
-2.12402	
-2.13013	
-2.15607	
-2.16217	
-2.18353	
-2.18964	
-2.18658	
-2.18353	
-2.20184	
-2.22015	
-2.22321	
-2.21558	
-2.2049	
-2.18964	
-2.15759	
-2.12708	
-2.09351	
-2.06604	
-2.05841	
-2.06604	
-2.07062	
-2.06757	
-2.06909	
-2.07825	
-2.07367	
-2.08282	
-2.08282	
-2.09351	
-2.10266	
-2.10419	
-2.11029	
-2.11334	
-2.11639	
-2.11029	
-2.11334	
-2.11487	
-2.11639	
-2.11639	
-2.11792	
-2.1225	
-2.11792	
-2.11945	
-2.1225	
-2.12402	
-2.1225	
-2.1225	
-2.12097	
-2.1225	
-2.1225	
-2.12402	
-2.1225	
-2.1225	
-2.12097	
-2.11792	
-2.1225	
-2.1225	
-2.11945	
-2.11945	
-2.12555	
-2.12402	
-2.12555	
-2.1225	
-2.12708	
-2.12708	
-2.13013	
-2.13318	
-2.14081	
-2.13318	
-2.13623	
-2.1347	
-2.13013	
-2.12708	
-2.12555	
-2.12097	
-2.11792	
-2.11487	
-2.11182	
-2.11334	
-2.11487	
-2.11792	
-2.11945	
-2.12402	
-2.13165	
-2.14539	
-2.15607	
-2.16675	
-2.17438	
-2.18964	
-2.19421	
-2.19116	
-2.18506	
-2.1637	
-2.15454	
-2.14233	
-2.14081	
-2.13928	
-2.11792	
-2.09198	
-2.0874	
-2.09045	
-2.07672	
-2.07672	
-2.08588	
-2.09351	
-2.09656	
-2.10876	
-2.11182	
-2.11182	
-2.11334	
-2.11639	
-2.11182	
-2.10266	
-2.10266	
-2.09961	
-2.10419	
-2.11029	
-2.11487	
-2.11029	
-2.11182	
-2.11182	
-2.11182	
-2.11487	
-2.11487	
-2.11487	
-2.11792	
-2.11792	
-2.11639	
-2.11487	
-2.11639	
-2.11334	
-2.11334	
-2.11639	
-2.11639	
-2.11792	
-2.11639	
-2.11792	
-2.11792	
-2.11792	
-2.11639	
-2.1225	
-2.11639	
-2.11334	
-2.11792	
-2.11945	
-2.11945	
-2.12097	
-2.11945	
-2.11792	
-2.11487	
-2.11945	
-2.11487	
-2.11334	
-2.11487	
-2.11792	
-2.12097	
-2.12097	
-2.12555	
-2.12555	
-2.14386	
-2.17743	
-2.19574	
-2.20795	
-2.21863	
-2.20947	
-2.20184	
-2.18811	
-2.17285	
-2.14996	
-2.13318	
-2.13928	
-2.12402	
-2.10419	
-2.08588	
-2.10114	
-2.11945	
-2.13623	
-2.1698	
-2.17133	
-2.1637	
-2.15149	
-2.14233	
-2.11334	
-2.0874	
-2.06604	
-2.05994	
-2.05994	
-2.06604	
-2.05536	
-2.05841	
-2.06299	
-2.05841	
-2.04163	
-2.05078	
-2.07214	
-2.09503	
-2.11334	
-2.11792	
-2.12708	
-2.12555	
-2.13165	
-2.13623	
-2.14539	
-2.14844	
-2.14844	
-2.14996	
-2.14996	
-2.14386	
-2.14233	
-2.14081	
-2.1347	
-2.13165	
-2.1286	
-2.12097	
-2.10114	
-2.09351	
-2.09198	
-2.09656	
-2.10419	
-2.11029	
-2.10876	
-2.11334	
-2.11487	
-2.11334	
-2.11639	
-2.11639	
-2.12097	
-2.11792	
-2.12097	
-2.12097	
-2.11945	
-2.11639	
-2.1225	
-2.12097	
-2.1225	
-2.12402	
-2.12402	
-2.12555	
-2.12097	
-2.11945	
-2.11792	
-2.11945	
-2.11792	
-2.1225	
-2.1225	
-2.13165	
-2.14081	
-2.15454	
-2.1637	
-2.15607	
-2.15912	
-2.15302	
-2.15149	
-2.14233	
-2.13928	
-2.12402	
-2.11945	
-2.11639	
-2.10419	
-2.09351	
-2.09656	
-2.09961	
-2.09503	
-2.09198	
-2.09503	
-2.10266	
-2.11029	
-2.11792	
-2.11487	
-2.11334	
-2.11487	
-2.12097	
-2.13165	
-2.14081	
-2.14844	
-2.14539	
-2.14844	
-2.14539	
-2.14081	
-2.13623	
-2.13623	
-2.13013	
-2.12708	
-2.12402	
-2.1225	
-2.11639	
-2.10114	
-2.08893	
-2.08588	
-2.09808	
-2.10419	
-2.10724	
-2.09961	
-2.10724	
-2.11182	
-2.10724	
-2.11792	
-2.11639	
-2.11639	
-2.11792	
-2.11639	
-2.11487	
-2.11792	
-2.11639	
-2.11945	
-2.11945	
-2.11792	
-2.11792	
-2.11792	
-2.12097	
-2.11945	
-2.11945	
-2.11945	
-2.1225	
-2.11792	
-2.11639	
-2.12097	
-2.1225	
-2.11639	
-2.11792	
-2.11945	
-2.11945	
-2.11792	
-2.11792	
-2.11945	
-2.11487	
-2.12097	
-2.11639	
-2.11945	
-2.11945	
-2.11487	
-2.11639	
-2.11945	
-2.12402	
-2.11945	
-2.12097	
-2.12097	
-2.12555	
-2.1286	
-2.15302	
-2.17743	
-2.18506	
-2.18658	
-2.19116	
-2.18964	
-2.17896	
-2.16217	
-2.14539	
-2.13165	
-2.12555	
-2.11334	
-2.10114	
-2.08435	
-2.07672	
-2.07825	
-2.0813	
-2.0813	
-2.0874	
-2.09045	
-2.09808	
-2.10114	
-2.10266	
-2.10266	
-2.11182	
-2.11182	
-2.11487	
-2.10876	
-2.11792	
-2.13165	
-2.14844	
-2.20032	
-2.23694	
-2.26288	
-2.29797	
-2.30865	
-2.29797	
-2.27203	
-2.23541	
-2.18201	
-2.13165	
-2.09198	
-2.06299	
-2.0462	
-2.02789	
-2.03094	
-2.02484	
-2.02637	
-2.034	
-2.02789	
-2.02179	
-2.03705	
-2.06757	
-2.08588	
-2.09808	
-2.10114	
-2.10266	
-2.10266	
-2.10266	
-2.10419	
-2.10876	
-2.11182	
-2.11334	
-2.11182	
-2.11182	
-2.11487	
-2.11487	
-2.11639	
-2.11792	
-2.13318	
-2.14996	
-2.15607	
-2.15607	
-2.15149	
-2.14081	
-2.13165	
-2.12402	
-2.11945	
-2.1225	
-2.11487	
-2.12402	
-2.11792	
-2.10419	
-2.10419	
-2.09198	
-2.09351	
-2.09808	
-2.10419	
-2.11182	
-2.11639	
-2.11639	
-2.1286	
-2.14691	
-2.17133	
-2.20032	
-2.23389	
-2.2644	
-2.28271	
-2.27661	
-2.25372	
-2.23236	
-2.2049	
-2.1698	
-2.13928	
-2.09656	
-2.06299	
-2.03247	
-2.03552	
-2.034	
-2.04773	
-2.03247	
-2.04163	
-2.05841	
-2.07672	
-2.08435	
-2.09503	
-2.11029	
-2.14539	
-2.22626	
-2.30408	
-2.34222	
-2.33612	
-2.31476	
-2.27356	
-2.2171	
-2.14844	
-2.10114	
-2.07825	
-2.06757	
-2.05231	
-2.05994	
-2.04163	
-2.02484	
-1.99585	
-1.97296	
-1.98059	
-2.02026	
-2.0813	
-2.10876	
-2.11792	
-2.11487	
-2.10876	
-2.10724	
-2.11487	
-2.11639	
-2.11792	
-2.1225	
-2.1286	
-2.14539	
-2.16064	
-2.16675	
-2.17438	
-2.17133	
-2.16217	
-2.15454	
-2.13928	
-2.12402	
-2.11182	
-2.10266	
-2.09656	
-2.0874	
-2.08893	
-2.07672	
-2.07977	
-2.07214	
-2.08282	
-2.09503	
-2.10266	
-2.10266	
-2.11029	
-2.11639	
-2.11792	
-2.12708	
-2.16522	
-2.22168	
-2.24762	
-2.27661	
-2.28882	
-2.27356	
-2.23541	
-2.19421	
-2.15149	
-2.11487	
-2.0874	
-2.07062	
-2.05994	
-2.03857	
-1.99432	
-1.98975	
-2.01569	
-2.03247	
-2.05688	
-2.06909	
-2.09198	
-2.11792	
-2.12097	
-2.11639	
-2.11029	
-2.1347	
-2.14081	
-2.13013	
-2.13013	
-2.11945	
-2.11182	
-2.09808	
-2.07977	
-2.05841	
-2.05688	
-2.05231	
-2.06146	
-2.04773	
-2.0401	
-2.05536	
-2.07214	
-2.09961	
-2.10419	
-2.12402	
-2.14081	
-2.14539	
-2.14844	
-2.14081	
-2.1286	
-2.10724	
-2.11334	
-2.12555	
-2.12555	
-2.1286	
-2.13623	
-2.14691	
-2.14844	
-2.14691	
-2.14539	
-2.14386	
-2.14386	
-2.13928	
-2.13928	
-2.13928	
-2.13623	
-2.1347	
-2.13623	
-2.13165	
-2.13013	
-2.1286	
-2.12555	
-2.12555	
-2.1286	
-2.13165	
-2.13928	
-2.14081	
-2.14691	
-2.15454	
-2.16217	
-2.15912	
-2.16064	
-2.17285	
-2.17743	
-2.19421	
-2.21558	
-2.22321	
-2.21558	
-2.19574	
-2.1698	
-2.12555	
-2.09808	
-2.07825	
-2.05841	
-2.03857	
-2.02332	
-2.00043	
-1.99585	
-2.00195	
-2.03247	
-2.07825	
-2.12555	
-2.14081	
-2.1225	
-2.13013	
-2.11639	
-2.08893	
-2.04773	
-2.02484	
-2.00806	
-2.00806	
-2.00806	
-2.01874	
-2.0401	
-2.08435	
-2.13013	
-2.12708	
-2.12097	
-2.14539	
-2.1698	
-2.19421	
-2.22321	
-2.23236	
-2.23236	
-2.22015	
-2.23694	
-2.23999	
-2.22321	
-2.211	
-2.19116	
-2.14844	
-2.10266	
-2.05994	
-2.02332	
-2.01111	
-2.01721	
-2.0401	
-2.08588	
-2.09961	
-2.10114	
-2.09808	
-2.09808	
-2.11792	
-2.1225	
-2.14539	
-2.21252	
-2.23541	
-2.2171	
-2.17896	
-2.14386	
-2.09198	
-2.03247	
-1.98517	
-1.95618	
-1.94397	
-1.93176	
-1.92413	
-1.91345	
-1.93634	
-2.00348	
-2.04926	
-2.12402	
-2.211	
-2.22626	
-2.20947	
-2.19574	
-2.17896	
-2.16675	
-2.15149	
-2.13623	
-2.14844	
-2.1637	
-2.19574	
-2.2644	
-2.34985	
-2.37122	
-2.36664	
-2.33612	
-2.28882	
-2.23389	
-2.17285	
-2.12555	
-2.11639	
-2.08588	
-2.03857	
-1.9928	
-1.95923	
-1.96991	
-1.98975	
-2.02332	
-2.03552	
-2.07825	
-2.10876	
-2.11334	
-2.11487	
-2.10724	
-2.10419	
-2.10724	
-2.11029	
-2.10876	
-2.11334	
-2.11792	
-2.11639	
-2.10419	
-2.09808	
-2.09961	
-2.09961	
-2.09198	
-2.08893	
-2.09503	
-2.0813	
-2.06451	
-2.06299	
-2.05688	
-2.06604	
-2.09045	
-2.11487	
-2.1286	
-2.1347	
-2.1347	
-2.13165	
-2.13165	
-2.1225	
-2.12097	
-2.1225	
-2.1286	
-2.14844	
-2.15607	
-2.20947	
-2.29645	
-2.35291	
-2.35138	
-2.32849	
-2.27966	
-2.22168	
-2.15149	
-2.07825	
-2.01263	
-1.96686	
-1.92719	
-1.90735	
-1.90125	
-1.93634	
-1.96991	
-1.98822	
-2.05383	
-2.09045	
-2.09045	
-2.08588	
-2.08893	
-2.09351	
-2.09198	
-2.09198	
-2.0874	
-2.06451	
-2.05231	
-2.05383	
-2.05536	
-2.04315	
-2.02484	
-2.005	
-1.98059	
-1.96381	
-1.95618	
-1.95618	
-1.98059	
-2.01721	
-2.05994	
-2.09351	
-2.13623	
-2.14539	
-2.15607	
-2.15454	
-2.15454	
-2.13623	
-2.12708	
-2.12402	
-2.11639	
-2.11182	
-2.10876	
-2.10266	
-2.09656	
-2.10114	
-2.11182	
-2.11792	
-2.11792	
-2.11029	
-2.09961	
-2.09351	
-2.0874	
-2.07672	
-2.07062	
-2.06757	
-2.05994	
-2.05078	
-2.03552	
-2.03094	
-2.04163	
-2.05078	
-2.06757	
-2.08435	
-2.0874	
-2.08588	
-2.09045	
-2.09351	
-2.0874	
-2.09045	
-2.08588	
-2.08435	
-2.09656	
-2.10114	
-2.12402	
-2.18964	
-2.27051	
-2.27661	
-2.2583	
-2.28271	
-2.25525	
-2.19727	
-2.12708	
-2.05688	
-1.97449	
-1.9104	
-1.85242	
-1.81732	
-1.8158	
-1.87531	
-1.96381	
-2.03552	
-2.06604	
-2.05994	
-2.06146	
-2.08282	
-2.0813	
-2.07214	
-2.06757	
-2.06451	
-2.06299	
-2.06299	
-2.06909	
-2.07214	
-2.08893	
-2.11639	
-2.11487	
-2.09045	
-2.06451	
-2.03552	
-2.01263	
-2.00806	
-2.02484	
-2.03552	
-2.0401	
-2.08282	
-2.10876	
-2.12402	
-2.14386	
-2.1286	
-2.09656	
-2.07214	
-2.05536	
-2.03552	
-2.01263	
-2.00348	
-2.01721	
-2.03094	
-2.0462	
-2.04773	
-2.04773	
-2.0462	
-2.04315	
-2.02637	
-2.00806	
-1.9989	
-1.98822	
-1.98517	
-1.96991	
-1.96533	
-1.96228	
-1.96838	
-1.98517	
-2.00348	
-2.02179	
-2.06909	
-2.10876	
-2.11487	
-2.09961	
-2.09656	
-2.10724	
-2.09808	
-2.14233	
-2.19727	
-2.21863	
-2.2171	
-2.20947	
-2.18811	
-2.14386	
-2.09656	
-2.0462	
-2.01874	
-1.98975	
-1.99738	
-2.00043	
-1.9928	
-1.9989	
-2.00653	
-2.01569	
-2.05994	
-2.08435	
-2.09656	
-2.11792	
-2.10724	
-2.08893	
-2.05231	
-2.03552	
-2.01721	
-1.9989	
-1.9928	
-2.00653	
-2.01263	
-2.00043	
-1.99127	
-1.98975	
-2.02484	
-2.03705	
-2.02332	
-2.02942	
-2.03857	
-2.02179	
-2.01263	
-2.02026	
-1.99585	
-1.9928	
-2.02637	
-2.03094	
-2.03552	
-2.0401	
-2.04773	
-2.06146	
-2.06299	
-2.07977	
-2.11792	
-2.13318	
-2.11334	
-2.11487	
-2.11487	
-2.10876	
-2.09351	
-2.06909	
-2.03705	
-1.9928	
-2.01111	
-2.005	
-2.005	
-2.02179	
-2.05536	
-2.05841	
-2.05841	
-2.05536	
-2.06146	
-2.07977	
-2.09961	
-2.08893	
-2.07825	
-2.06299	
-2.034	
-2.02637	
-2.02484	
-2.00195	
-1.96228	
-1.93329	
-1.91345	
-1.91193	
-1.91803	
-1.9104	
-1.94092	
-1.96991	
-2.01569	
-2.04163	
-2.04163	
-2.03552	
-2.05231	
-2.08893	
-2.11945	
-2.15302	
-2.12097	
-2.10724	
-2.0874	
-2.07977	
-2.03857	
-1.99127	
-1.95313	
-1.9577	
-1.97296	
-1.96686	
-1.96991	
-1.9989	
-2.03247	
-2.01874	
-2.02484	
-2.03247	
-2.03094	
-2.02789	
-2.03247	
-2.05078	
-2.05688	
-2.05994	
-2.05078	
-2.04163	
-2.02484	
-2.005	
-2.00806	
-2.02789	
-2.034	
-2.02789	
-2.03705	
-2.05231	
-2.05078	
-2.034	
-2.02637	
-2.00653	
-2.00348	
-2.03094	
-2.07672	
-2.09198	
-2.09351	
-2.1225	
-2.12555	
-2.11029	
-2.0874	
-2.07214	
-2.08893	
-2.05994	
-2.00958	
-1.92413	
-1.87988	
-1.9165	
-1.96381	
-1.99127	
-2.03094	
-2.02637	
-2.06146	
-2.0462	
-2.0401	
-2.02179	
-2.01874	
-2.02789	
-2.0401	
-2.05994	
-2.05383	
-2.0401	
-2.03705	
-2.0401	
-2.02637	
-2.01569	
-2.01874	
-2.04315	
-2.05688	
-2.04926	
-2.03094	
-2.02332	
-2.02026	
-1.99738	
-1.9928	
-1.97754	
-1.93634	
-1.96075	
-1.99585	
-2.00348	
-2.034	
-2.06146	
-2.04315	
-2.04315	
-2.05231	
-2.05994	
-2.04926	
-2.02637	
-2.01111	
-2.01111	
-2.02789	
-2.03247	
-2.03857	
-2.02637	
-2.01569	
-1.9989	
-1.98364	
-1.96838	
-1.98822	
-1.98669	
-1.99585	
-2.00806	
-2.02789	
-2.03247	
-2.02026	
-2.02942	
-2.03552	
-2.04163	
-2.04163	
-2.06909	
-2.12402	
-2.13623	
-2.15607	
-2.14691	
-2.11639	
-2.05536	
-1.99738	
-1.94244	
-1.88141	
-1.89209	
-1.87836	
-1.91193	
-1.97449	
-2.01721	
-2.01721	
-2.00958	
-2.00348	
-2.00958	
-2.01263	
-2.01721	
-2.01874	
-2.01263	
-2.00958	
-2.01263	
-2.01874	
-2.01874	
-2.02332	
-2.00958	
-2.005	
-2.00806	
-2.02637	
-2.02789	
-2.00653	
-1.99432	
-2.00348	
-2.01721	
-2.00195	
-2.01111	
-2.00806	
-2.005	
-2.01111	
-2.01263	
-2.0401	
-2.07062	
-2.09656	
-2.10876	
-2.09808	
-2.07977	
-2.04773	
-2.01569	
-2.00348	
-1.97296	
-1.95618	
-1.97601	
-1.9989	
-1.98669	
-1.97754	
-1.98059	
-1.96075	
-1.93634	
-1.98822	
-2.03247	
-1.98975	
-1.96991	
-1.99432	
-1.98364	
-1.96228	
-1.97601	
-1.9989	
-1.99127	
-2.01874	
-2.04163	
-2.04773	
-2.05688	
-2.05688	
-2.10114	
-2.11029	
-2.11182	
-2.11182	
-2.09045	
-2.05231	
-1.98364	
-1.91193	
-1.85242	
-1.83868	
-1.85242	
-1.89514	
-1.90125	
-1.89972	
-1.96838	
-2.00348	
-1.97754	
-1.98669	
-1.99585	
-1.99585	
-1.9928	
-1.99432	
-1.98822	
-1.99127	
-1.99432	
-1.99127	
-1.98822	
-1.98517	
-1.98364	
-1.97906	
-1.9928	
-2.05383	
-2.11945	
-2.15302	
-2.15912	
-2.15454	
-2.13928	
-2.08435	
-2.02332	
-1.96075	
-1.90887	
-1.90887	
-1.91345	
-1.90125	
-1.89667	
-1.92719	
-1.93634	
-1.94702	
-1.96381	
-1.96381	
-1.95465	
-1.95618	
-1.96075	
-1.96838	
-1.96991	
-1.99738	
-2.04926	
-2.0813	
-2.10419	
-2.11334	
-2.09808	
-2.06146	
-2.00195	
-1.90125	
-1.84479	
-1.80664	
-1.77612	
-1.85699	
-1.92871	
-1.95923	
-1.95923	
-1.95923	
-1.96838	
-1.97144	
-1.96838	
-1.96533	
-1.96075	
-1.96381	
-1.95465	
-1.95465	
-1.9577	
-1.96228	
-1.96838	
-1.97906	
-2.00806	
-2.05536	
-2.07672	
-2.07825	
-2.05383	
-2.01874	
-1.97754	
-1.98975	
-1.98517	
-1.9455	
-1.98517	
-2.02942	
-1.99585	
-1.96686	
-1.93634	
-1.86615	
-1.84326	
-1.8692	
-1.90125	
-1.91498	
-1.92566	
-1.93176	
-1.93176	
-1.93481	
-1.93176	
-1.94092	
-1.97754	
-2.09198	
-2.18658	
-2.21405	
-2.18964	
-2.14081	
-2.07214	
-1.98517	
-1.87225	
-1.79901	
-1.82953	
-1.81122	
-1.80054	
-1.8219	
-1.8631	
-1.88751	
-1.90735	
-1.91498	
-1.91956	
-1.93024	
-1.93176	
-1.93176	
-1.93329	
-1.93329	
-1.93787	
-1.94092	
-1.94855	
-1.94702	
-1.95618	
-1.95465	
-1.94397	
-1.93634	
-1.94397	
-1.94855	
-1.96075	
-1.96686	
-1.96838	
-1.96686	
-1.96381	
-1.97601	
-1.96991	
-1.93939	
-1.93939	
-1.95007	
-1.95007	
-1.94855	
-1.95007	
-1.95923	
-1.95465	
-1.96533	
-1.96228	
-1.9455	
-1.94092	
-1.94855	
-1.9577	
-1.96075	
-1.97449	
-2.01569	
-2.08435	
-2.1347	
-2.17896	
-2.17285	
-2.09656	
-2.01569	
-1.92566	
-1.7868	
-1.75629	
-1.79291	
-1.83411	
-1.88751	
-1.9104	
-1.93787	
-1.94244	
-1.91956	
-1.91956	
-1.93329	
-1.93329	
-1.93481	
-1.94855	
-1.97296	
-1.97754	
-1.97754	
-2.01263	
-2.03247	
-2.03094	
-2.02179	
-2.02332	
-2.03094	
-2.0401	
-2.00348	
-1.96381	
-1.93176	
-1.96228	
-1.93329	
-1.91345	
-1.95007	
-1.96991	
-1.96686	
-1.96381	
-1.98669	
-1.97601	
-1.96533	
-1.96381	
-1.96991	
-1.98517	
-1.99738	
-2.04926	
-2.0813	
-2.08588	
-2.06909	
-2.06146	
-2.01111	
-1.96381	
-1.94092	
-1.88446	
-1.87988	
-1.87531	
-1.88599	
-1.95465	
-1.98975	
-1.98822	
-1.96228	
-1.96533	
-2.00195	
-1.99127	
-1.98669	
-1.94702	
-1.94092	
-1.94855	
-1.96381	
-1.96381	
-1.96838	
-1.97449	
-1.96228	
-1.98059	
-1.98975	
-1.97906	
-1.96991	
-1.97449	
-1.96533	
-1.98059	
-1.97144	
-1.96533	
-1.96381	
-1.97754	
-1.99585	
-1.98517	
-1.97754	
-2.00653	
-2.01874	
-2.02789	
-2.01569	
-1.98059	
-1.97754	
-1.97601	
-1.9455	
-1.95465	
-1.96686	
-1.9928	
-2.01111	
-2.01569	
-2.00195	
-2.01111	
-2.04315	
-2.06909	
-2.034	
-2.04926	
-2.05231	
-2.03247	
-1.98517	
-1.9165	
-1.92871	
-1.97601	
-2.02332	
-2.02942	
-2.03094	
-2.04926	
-2.03552	
-2.07825	
-2.07062	
-2.03705	
-2.01111	
-1.99127	
-1.99432	
-1.97754	
-1.92413	
-1.89667	
-1.92413	
-1.96075	
-1.98822	
-1.98059	
-1.97449	
-1.98364	
-1.99738	
-2.00348	
-2.02026	
-2.05688	
-2.07214	
-2.07977	
-2.11182	
-2.1347	
-2.13013	
-2.09656	
-2.05383	
-2.03705	
-1.99738	
-1.96075	
-1.96686	
-1.98059	
-2.04926	
-2.05231	
-2.02942	
-2.01263	
-1.91956	
-1.8692	
-1.94702	
-1.97296	
-1.98059	
-2.00043	
-1.9989	
-2.00043	
-2.00806	
-2.00958	
-2.01569	
-2.02179	
-2.02179	
-2.02179	
-2.02026	
-2.02637	
-2.02942	
-2.03705	
-2.05688	
-2.06757	
-2.07214	
-2.07672	
-2.06909	
-2.02179	
-2.02332	
-2.005	
-1.95923	
-1.98975	
-2.03705	
-2.02789	
-2.02484	
-2.03247	
-2.03857	
-2.03705	
-2.03705	
-2.03705	
-2.03552	
-2.04163	
-2.04926	
-2.04773	
-2.05078	
-2.05078	
-2.04926	
-2.08282	
-2.11945	
-2.13623	
-2.12097	
-2.12555	
-2.12097	
-2.09503	
-2.02789	
-1.96381	
-1.97144	
-2.00348	
-1.99432	
-1.99432	
-2.02484	
-2.03705	
-2.06299	
-2.07977	
-2.08282	
-2.11334	
-2.1347	
-2.14386	
-2.15454	
-2.1225	
-2.04163	
-1.97144	
-1.9928	
-2.00043	
-2.00348	
-2.01874	
-2.03094	
-2.02026	
-2.01111	
-2.034	
-2.02942	
-2.03247	
-2.0401	
