6.0745200
6.0699500
6.0653700
6.0699500
6.0699500
6.0760500
6.0775800
6.0760500
6.0836800
6.0867300
6.0882600
6.0836800
6.0852100
6.0852100
6.0821500
6.0852100
6.0791000
6.0806300
6.0806300
6.0821500
6.0821500
6.0791000
6.0775800
6.0745200
6.0714700
6.0699500
6.0668900
6.0714700
6.0699500
6.0745200
6.0806300
6.0852100
6.0882600
6.0852100
6.0836800
6.0775800
6.0836800
6.0821500
6.0821500
6.0806300
6.0791000
6.0745200
6.0730000
6.0699500
6.0668900
6.0714700
6.0668900
6.0775800
6.0791000
6.0791000
6.0791000
6.0745200
6.0745200
6.0806300
6.0791000
6.0760500
6.0821500
6.0836800
6.0775800
6.0791000
6.0806300
6.0775800
6.0775800
6.0760500
6.0806300
6.0806300
6.0806300
6.0852100
6.0821500
6.0791000
6.0775800
6.0806300
6.0745200
6.0806300
6.0730000
6.0730000
6.0760500
6.0760500
6.0775800
6.0806300
6.0806300
6.0760500
6.0775800
6.0760500
6.0775800
6.0760500
6.0760500
6.0760500
6.0745200
6.0760500
6.0714700
6.0730000
6.0714700
6.0714700
6.0699500
6.0714700
6.0623200
6.0699500
6.0638400
6.0745200
6.0806300
6.0760500
6.0714700
6.0760500
6.0775800
6.0760500
6.0791000
6.0791000
6.0806300
6.0791000
6.0791000
6.0775800
6.0775800
6.0791000
6.0836800
6.0791000
6.0760500
6.0775800
6.0699500
6.0745200
6.0745200
6.0821500
6.0760500
6.0821500
6.0745200
6.0791000
6.0775800
6.0775800
6.0760500
6.0791000
6.0760500
6.0791000
6.0760500
6.0775800
6.0745200
6.0714700
6.0668900
6.0714700
6.0730000
6.0791000
6.0745200
6.0760500
6.0775800
6.0791000
6.0775800
6.0760500
6.0714700
6.0730000
6.0699500
6.0745200
6.0699500
6.0668900
6.0638400
6.0607900
6.0730000
6.0775800
6.0852100
6.0943600
6.0913100
6.0852100
6.0852100
6.0791000
6.0775800
6.0699500
6.0745200
6.0714700
6.0714700
6.0699500
6.0653700
6.0699500
6.0714700
6.0699500
6.0668900
6.0745200
6.0714700
6.0775800
6.0775800
6.0806300
6.0791000
6.0745200
6.0745200
6.0714700
6.0699500
6.0745200
6.0730000
6.0699500
6.0745200
6.0821500
6.0806300
6.0791000
6.0791000
6.0760500
6.0760500
6.0745200
6.0730000
6.0775800
6.0730000
6.0745200
6.0775800
6.0775800
6.0760500
6.0745200
6.0653700
6.0699500
6.0730000
6.0775800
6.0791000
6.0806300
6.0760500
6.0775800
6.0791000
6.0745200
6.0745200
6.0745200
6.0775800
6.0775800
6.0791000
6.0775800
6.0730000
6.0699500
6.0653700
6.0745200
6.0714700
6.0668900
6.0607900
6.0577400
6.0577400
6.0668900
6.0668900
6.0623200
6.0821500
6.0882600
6.0791000
6.0821500
6.0882600
6.0791000
6.0791000
6.0760500
6.0760500
6.0745200
6.0760500
6.0791000
6.0745200
6.0760500
6.0760500
6.0730000
6.0668900
6.0730000
6.0760500
6.0791000
6.0745200
6.0668900
6.0607900
6.0623200
6.0623200
6.0577400
6.0607900
6.0821500
6.0806300
6.0730000
6.0745200
6.0806300
6.0760500
6.0745200
6.0760500
6.0775800
6.0775800
6.0760500
6.0730000
6.0730000
6.0745200
6.0775800
6.0730000
6.0745200
6.0745200
6.0760500
6.0791000
6.0806300
6.0775800
6.0791000
6.0775800
6.0760500
6.0760500
6.0760500
6.0806300
6.0760500
6.0775800
6.0775800
6.0836800
6.0791000
6.0760500
6.0760500
6.0730000
6.0745200
6.0775800
6.0821500
6.0745200
6.0760500
6.0668900
6.0745200
6.0730000
6.0730000
6.0760500
6.0745200
6.0760500
6.0714700
6.0745200
6.0775800
6.0714700
6.0730000
6.0775800
6.0775800
6.0775800
6.0760500
6.0730000
6.0730000
6.0699500
6.0730000
6.0714700
6.0668900
6.0714700
6.0760500
6.0775800
6.0806300
6.0730000
6.0791000
6.0760500
6.0791000
6.0760500
6.0745200
6.0806300
6.0775800
6.0745200
6.0745200
6.0745200
6.0699500
6.0760500
6.0745200
6.0760500
6.0745200
6.0745200
6.0730000
6.0745200
6.0730000
6.0730000
6.0745200
6.0668900
6.0714700
6.0699500
6.0714700
6.0699500
6.0653700
6.0638400
6.0653700
6.0714700
6.0668900
6.0730000
6.0745200
6.0668900
6.0638400
6.0638400
6.0577400
6.0623200
6.0638400
6.0623200
6.0607900
6.0745200
6.0745200
6.0653700
6.0638400
6.0668900
6.0760500
6.0760500
6.0730000
6.0730000
6.0806300
6.0775800
6.0760500
6.0699500
6.0638400
6.0653700
6.0623200
6.0653700
6.0730000
6.0791000
6.0821500
6.0836800
6.0791000
6.0745200
6.0760500
6.0806300
6.0806300
6.0821500
6.0836800
6.0836800
6.0806300
6.0745200
6.0775800
6.0745200
6.0745200
6.0775800
6.0806300
6.0775800
6.0775800
6.0806300
6.0760500
6.0775800
6.0806300
6.0791000
6.0791000
6.0806300
6.0760500
6.0760500
6.0791000
6.0760500
6.0760500
6.0745200
6.0745200
6.0760500
6.0730000
6.0668900
6.0760500
6.0760500
6.0791000
6.0714700
6.0699500
6.0791000
6.0836800
6.0714700
6.0714700
6.0668900
6.0668900
6.0730000
6.0775800
6.0791000
6.0745200
6.0775800
6.0760500
6.0821500
6.0806300
6.0775800
6.0760500
6.0791000
6.0852100
6.0836800
6.0836800
6.0806300
6.0806300
6.0791000
6.0791000
6.0775800
6.0760500
6.0730000
6.0821500
6.0882600
6.0958900
6.1004600
6.0974100
6.0897800
6.0882600
6.0882600
6.0836800
6.0852100
6.0806300
6.0760500
6.0730000
6.0714700
6.0699500
6.0730000
6.0760500
6.0730000
6.0760500
6.0730000
6.0806300
6.0836800
6.0867300
6.0882600
6.0897800
6.0821500
6.0867300
6.0852100
6.0821500
6.0775800
6.0806300
6.0806300
6.0745200
6.0760500
6.0775800
6.0821500
6.0775800
6.0791000
6.0806300
6.0806300
6.0821500
6.0806300
6.0852100
6.0821500
6.0775800
6.0760500
6.0745200
6.0806300
6.0821500
6.0821500
6.0821500
6.0821500
6.0821500
6.0836800
6.0852100
6.0852100
6.0836800
6.0882600
6.0852100
6.0852100
6.0806300
6.0791000
6.0791000
6.0806300
6.0836800
6.0821500
6.0836800
6.0852100
6.0836800
6.0791000
6.0806300
6.0791000
6.0791000
6.0791000
6.0836800
6.0791000
6.0821500
6.0821500
6.0791000
6.0775800
6.0821500
6.0791000
6.0699500
6.0714700
6.0653700
6.0638400
6.0653700
6.0760500
6.0791000
6.0852100
6.0852100
6.0836800
6.0806300
6.0760500
6.0836800
6.0806300
6.0806300
6.0867300
6.0897800
6.0882600
6.0836800
6.0852100
6.0852100
6.0836800
6.0836800
6.0806300
6.0806300
6.0836800
6.0821500
6.0836800
6.0775800
6.0775800
6.0836800
6.0836800
6.0882600
6.0836800
6.0836800
6.0821500
6.0791000
6.0821500
6.0836800
6.0821500
6.0836800
6.0821500
6.0852100
6.0836800
6.0836800
6.0867300
6.0867300
6.0806300
6.0867300
6.0882600
6.0791000
6.0730000
6.0668900
6.0714700
6.0760500
6.0806300
6.0882600
6.0974100
6.1004600
6.1004600
6.0928300
6.0775800
6.0714700
6.0760500
6.0867300
6.0821500
6.0714700
6.0653700
6.0775800
6.0760500
6.0791000
6.0836800
6.0852100
6.0821500
6.0836800
6.0882600
6.0882600
6.0882600
6.0836800
6.0882600
6.0836800
6.0867300
6.0867300
6.0791000
6.0791000
6.0836800
6.0821500
6.0821500
6.0852100
6.0806300
6.0821500
6.0791000
6.0836800
6.0821500
6.0852100
6.0806300
6.0775800
6.0760500
6.0806300
6.0806300
6.0775800
6.0821500
6.0791000
6.0775800
6.0791000
6.0791000
6.0775800
6.0760500
6.0806300
6.0806300
6.0791000
6.0745200
6.0791000
6.0775800
6.0775800
6.0775800
6.0775800
6.0714700
6.0806300
6.0791000
6.0806300
6.0836800
6.0852100
6.0806300
6.0791000
6.0821500
6.0806300
6.0836800
6.0775800
6.0775800
6.0760500
6.0836800
6.0791000
6.0806300
6.0791000
6.0791000
6.0836800
6.0806300
6.0821500
6.0806300
6.0806300
6.0806300
6.0867300
6.0806300
6.0791000
6.0760500
6.0775800
6.0775800
6.0806300
6.0745200
6.0714700
6.0775800
6.0730000
6.0745200
6.0714700
6.0714700
6.0668900
6.0714700
6.0730000
6.0836800
6.0745200
6.0714700
6.0775800
6.0836800
6.0882600
6.0867300
6.0821500
6.0791000
6.0791000
6.0821500
6.0836800
6.0867300
6.0867300
6.0852100
6.0836800
6.0867300
6.0882600
6.0852100
6.0867300
6.0852100
6.0806300
6.0836800
6.0775800
6.0760500
6.0714700
6.0730000
6.0760500
6.0775800
6.0821500
6.0745200
6.0775800
6.0791000
6.0836800
6.0821500
6.0821500
6.0806300
6.0836800
6.0882600
6.0928300
6.0897800
6.0882600
6.0867300
6.0852100
6.0867300
6.0806300
6.0745200
6.0760500
6.0821500
6.0791000
6.0852100
6.0867300
6.0836800
6.0821500
6.0775800
6.0791000
6.0775800
6.0745200
6.0699500
6.0668900
6.0653700
6.0638400
6.0653700
6.0699500
6.0638400
6.0623200
6.0623200
6.0592700
6.0745200
6.0806300
6.0821500
6.0806300
6.0882600
6.0882600
6.0821500
6.0821500
6.0806300
6.0760500
6.0775800
6.0867300
6.0821500
6.0821500
6.0821500
6.0836800
6.0806300
6.0821500
6.0791000
6.0791000
6.0760500
6.0791000
6.0821500
6.0791000
6.0852100
6.0852100
6.0867300
6.0852100
6.0836800
6.0836800
6.0882600
6.0852100
6.0852100
6.0867300
6.0791000
6.0806300
6.0760500
6.0836800
6.0867300
6.0913100
6.0852100
6.0852100
6.0836800
6.0852100
6.0913100
6.0943600
6.0913100
6.0897800
6.0928300
6.0897800
6.0943600
6.0882600
6.0913100
6.0928300
6.0928300
6.0913100
6.0897800
6.0867300
6.0882600
6.0897800
6.0882600
6.0897800
6.0897800
6.0913100
6.0897800
6.0958900
6.0928300
6.0943600
6.0913100
6.0867300
6.0836800
6.0882600
6.0882600
6.0882600
6.0913100
6.0897800
6.0943600
6.0913100
6.0897800
6.0897800
6.0897800
6.0913100
6.0867300
6.0913100
6.0867300
6.0852100
6.0928300
6.0958900
6.0897800
6.0867300
6.0821500
6.0852100
6.0806300
6.0943600
6.0928300
6.0897800
6.0897800
6.0913100
6.0897800
6.0928300
6.0974100
6.0928300
6.0958900
6.0928300
6.1019900
6.0974100
6.0958900
6.0958900
6.0958900
6.1004600
6.1019900
6.1065700
6.1065700
6.1050400
6.1035200
6.1035200
6.0974100
6.1004600
6.0958900
6.1004600
6.0974100
6.1035200
6.1004600
6.1004600
6.1004600
6.1019900
6.1019900
6.0958900
6.1019900
6.0974100
6.1019900
6.1004600
6.0974100
6.0974100
6.0928300
6.0928300
6.0943600
6.0974100
6.1035200
6.1004600
6.0974100
6.1050400
6.1050400
6.1035200
6.1035200
6.1035200
6.1004600
6.1019900
6.0958900
6.1035200
6.1019900
6.0974100
6.1035200
6.1080900
6.1035200
6.0974100
6.0958900
6.0943600
6.1019900
6.1035200
6.1019900
6.1080900
6.1004600
6.1035200
6.1019900
6.0958900
6.0974100
6.0974100
6.1004600
6.0943600
6.0897800
6.0958900
6.0974100
6.0943600
6.1004600
6.0974100
6.0974100
6.0974100
6.0974100
6.0913100
6.0943600
6.0974100
6.1004600
6.1019900
6.1004600
6.1019900
6.0974100
6.1065700
6.1004600
6.1019900
6.0974100
6.1004600
6.0958900
6.1004600
6.1035200
6.1096200
6.1035200
6.1035200
6.1019900
6.1004600
6.1035200
6.1004600
6.1019900
6.0974100
6.1019900
6.1019900
6.0974100
6.0943600
6.0943600
6.1019900
6.1019900
6.1004600
6.0958900
6.1004600
6.0974100
6.1035200
6.0958900
6.0974100
6.0974100
6.0928300
6.0913100
6.0897800
6.0852100
6.0867300
6.0852100
6.0882600
6.1004600
6.1004600
6.1035200
6.1004600
6.0928300
6.0913100
6.0882600
6.0913100
6.0943600
6.0943600
6.0974100
6.1035200
6.0974100
6.0974100
6.0974100
6.0974100
6.0974100
6.1035200
6.1004600
6.1019900
6.0974100
6.1004600
6.1080900
6.1004600
6.1019900
6.0974100
6.1004600
6.0958900
6.1035200
6.1004600
6.1004600
6.0974100
6.0943600
6.0958900
6.0958900
6.0974100
6.0943600
6.0974100
6.1004600
6.0974100
6.0943600
6.0943600
6.1004600
6.0974100
6.1004600
6.0974100
6.1004600
6.1004600
6.0974100
6.1019900
6.0958900
6.0897800
6.0897800
6.0867300
6.0913100
6.0958900
6.0958900
6.1080900
6.1019900
6.1019900
6.0928300
6.0913100
6.0852100
6.0836800
6.0943600
6.0928300
6.0943600
6.1035200
6.1019900
6.1050400
6.1050400
6.1065700
6.1035200
6.1004600
6.1004600
6.0928300
6.1004600
6.0958900
6.0974100
6.0974100
6.1004600
6.0974100
6.0974100
6.0958900
6.0958900
6.0928300
6.0852100
6.0836800
6.0867300
6.0943600
6.0928300
6.0943600
6.0882600
6.0897800
6.0958900
6.0958900
6.0958900
6.0943600
6.0928300
6.0943600
6.0943600
6.0958900
6.0897800
6.0897800
6.0897800
6.0928300
6.0943600
6.0974100
6.0958900
6.0943600
6.0913100
6.0913100
6.0943600
6.0928300
6.0913100
6.0928300
6.0928300
6.0913100
6.0943600
6.0897800
6.0882600
6.0882600
6.0882600
6.0867300
6.0928300
6.0958900
6.0958900
6.0928300
6.0943600
6.0928300
6.0928300
6.0867300
6.0913100
6.0913100
6.0882600
6.0913100
6.0913100
6.0897800
6.0913100
6.0897800
6.0821500
6.0806300
6.0806300
6.0882600
6.0882600
6.0867300
6.0897800
6.0928300
6.0928300
6.0867300
6.0882600
6.0867300
6.0867300
6.0867300
6.0882600
6.0928300
6.0913100
6.0913100
6.0913100
6.0913100
6.0867300
6.0867300
6.0913100
6.0913100
6.0821500
6.0867300
6.0806300
6.0775800
6.0775800
6.0760500
6.0730000
6.0714700
6.0760500
6.0852100
6.0928300
6.0913100
6.0928300
6.0897800
6.0897800
6.0852100
6.0821500
6.0913100
6.0974100
6.0867300
6.0897800
6.0867300
6.0852100
6.0836800
6.0821500
6.0852100
6.0852100
6.0852100
6.0821500
6.0821500
6.0806300
6.0821500
6.0806300
6.0836800
6.0821500
6.0836800
6.0836800
6.0821500
6.0836800
6.0760500
6.0791000
6.0775800
6.0791000
6.0791000
6.0836800
6.0821500
6.0760500
6.0836800
6.0806300
6.0821500
6.0775800
6.0821500
6.0806300
6.0791000
6.0806300
6.0821500
6.0775800
6.0760500
6.0791000
6.0791000
6.0791000
6.0760500
6.0806300
6.0760500
6.0806300
6.0775800
6.0760500
6.0760500
6.0745200
6.0775800
6.0760500
6.0745200
6.0714700
6.0730000
6.0745200
6.0775800
6.0791000
6.0821500
6.0760500
6.0760500
6.0775800
6.0775800
6.0775800
6.0730000
6.0760500
6.0745200
6.0775800
6.0775800
6.0775800
6.0745200
6.0745200
6.0760500
6.0745200
6.0730000
6.0745200
6.0730000
6.0714700
6.0745200
6.0714700
6.0730000
6.0699500
6.0714700
6.0714700
6.0699500
6.0745200
6.0668900
6.0714700
6.0699500
6.0714700
6.0714700
6.0699500
6.0638400
6.0638400
6.0653700
6.0730000
6.0730000
6.0699500
6.0699500
6.0653700
6.0668900
6.0623200
6.0699500
6.0653700
6.0668900
6.0638400
6.0653700
6.0623200
6.0607900
6.0577400
6.0638400
6.0623200
6.0653700
6.0653700
6.0623200
6.0592700
6.0592700
6.0623200
6.0577400
6.0623200
6.0577400
6.0607900
6.0592700
6.0623200
6.0607900
6.0638400
6.0592700
6.0623200
6.0623200
6.0592700
6.0562100
6.0562100
6.0562100
6.0592700
6.0577400
6.0607900
6.0592700
6.0577400
6.0562100
6.0577400
6.0562100
6.0562100
6.0546900
6.0546900
6.0546900
6.0562100
6.0562100
6.0501100
6.0501100
6.0546900
6.0562100
6.0531600
6.0546900
6.0531600
6.0562100
6.0562100
6.0607900
6.0562100
6.0546900
6.0501100
6.0546900
6.0531600
6.0501100
6.0577400
6.0531600
6.0546900
6.0516400
6.0531600
6.0516400
6.0546900
6.0485800
6.0516400
6.0546900
6.0485800
6.0501100
6.0531600
6.0501100
6.0485800
6.0531600
6.0485800
6.0485800
6.0424800
6.0440100
6.0440100
6.0394300
6.0424800
6.0394300
6.0470600
6.0516400
6.0531600
6.0501100
6.0485800
6.0531600
6.0531600
6.0485800
6.0516400
6.0516400
6.0501100
6.0455300
6.0485800
6.0455300
6.0440100
6.0470600
6.0424800
6.0440100
6.0440100
6.0455300
6.0409500
6.0363800
6.0318000
6.0318000
6.0333300
6.0363800
6.0348500
6.0363800
6.0455300
6.0440100
6.0501100
6.0455300
6.0455300
6.0409500
6.0424800
6.0440100
6.0440100
6.0440100
6.0455300
6.0424800
6.0363800
6.0424800
6.0409500
6.0394300
6.0318000
6.0287500
6.0302700
6.0272200
6.0318000
6.0318000
6.0302700
6.0318000
6.0470600
6.0485800
6.0455300
6.0363800
6.0409500
6.0409500
6.0409500
6.0409500
6.0363800
6.0348500
6.0348500
6.0333300
6.0348500
6.0409500
6.0333300
6.0318000
6.0302700
6.0348500
6.0318000
6.0257000
6.0226400
6.0333300
6.0333300
6.0257000
6.0241700
6.0195900
6.0241700
6.0211200
6.0226400
6.0211200
6.0257000
6.0348500
6.0348500
6.0302700
6.0333300
6.0333300
6.0318000
6.0318000
6.0257000
6.0257000
6.0287500
6.0241700
6.0241700
6.0241700
6.0241700
6.0180700
6.0241700
6.0257000
6.0226400
6.0195900
6.0180700
6.0180700
6.0195900
6.0134900
6.0119600
6.0165400
6.0287500
6.0318000
6.0257000
6.0287500
6.0226400
6.0195900
6.0195900
6.0226400
6.0195900
6.0226400
6.0195900
6.0257000
6.0226400
6.0195900
6.0165400
6.0150100
6.0104400
6.0089100
6.0104400
6.0043300
6.0028100
5.9936500
6.0104400
6.0241700
6.0272200
6.0104400
6.0073900
6.0012800
5.9997600
6.0012800
6.0028100
5.9997600
5.9997600
6.0272200
6.0470600
6.0302700
6.0150100
6.0134900
6.0104400
6.0104400
6.0119600
6.0104400
6.0119600
6.0089100
6.0119600
6.0089100
6.0104400
6.0073900
6.0089100
6.0012800
6.0073900
5.9997600
5.9967000
5.9967000
5.9936500
5.9860200
5.9906000
6.0195900
6.0226400
6.0150100
6.0073900
6.0073900
6.0073900
6.0043300
6.0028100
6.0043300
6.0028100
6.0043300
6.0089100
6.0043300
6.0073900
6.0073900
6.0089100
6.0043300
6.0028100
6.0012800
6.0028100
5.9997600
5.9967000
6.0012800
6.0012800
5.9967000
5.9967000
6.0012800
5.9997600
5.9982300
5.9967000
5.9982300
5.9967000
5.9967000
5.9982300
5.9997600
5.9997600
5.9982300
5.9997600
5.9982300
6.0012800
5.9936500
5.9936500
5.9936500
5.9997600
5.9967000
5.9936500
5.9921300
5.9921300
5.9906000
5.9890700
5.9906000
5.9875500
5.9906000
5.9921300
5.9890700
5.9890700
5.9906000
5.9875500
5.9860200
5.9875500
5.9845000
5.9875500
5.9845000
5.9829700
5.9845000
5.9890700
5.9845000
5.9906000
5.9845000
5.9845000
5.9829700
5.9829700
5.9845000
5.9860200
5.9845000
5.9845000
5.9845000
5.9860200
5.9845000
5.9829700
5.9845000
5.9829700
5.9845000
5.9829700
5.9814500
5.9829700
5.9829700
5.9814500
5.9783900
5.9738200
5.9661900
5.9631300
5.9600800
5.9814500
5.9799200
5.9799200
5.9814500
5.9890700
5.9921300
5.9890700
5.9875500
5.9860200
5.9845000
5.9829700
5.9890700
5.9860200
5.9860200
5.9829700
5.9814500
5.9845000
5.9799200
5.9814500
5.9829700
5.9829700
5.9783900
5.9814500
5.9799200
5.9814500
5.9783900
5.9799200
5.9814500
5.9768700
5.9783900
5.9814500
5.9799200
5.9768700
5.9799200
5.9799200
5.9799200
5.9768700
5.9738200
5.9768700
5.9783900
5.9768700
5.9722900
5.9707600
5.9707600
5.9768700
5.9738200
5.9768700
5.9722900
5.9738200
5.9707600
5.9738200
5.9707600
5.9707600
5.9661900
5.9677100
5.9677100
5.9707600
5.9783900
5.9722900
5.9707600
5.9722900
5.9692400
5.9692400
5.9677100
5.9661900
5.9677100
5.9722900
5.9692400
5.9707600
5.9692400
5.9646600
5.9661900
5.9677100
5.9616100
5.9661900
5.9600800
5.9616100
5.9616100
5.9646600
5.9646600
5.9692400
5.9661900
5.9677100
5.9677100
5.9646600
5.9677100
5.9585600
5.9616100
5.9616100
5.9600800
5.9631300
5.9570300
5.9585600
5.9600800
5.9616100
5.9616100
5.9631300
5.9570300
5.9585600
5.9585600
5.9555100
5.9616100
5.9570300
5.9631300
5.9616100
5.9600800
5.9661900
5.9661900
5.9631300
5.9646600
5.9616100
5.9616100
5.9616100
5.9631300
5.9570300
5.9616100
5.9616100
5.9585600
5.9600800
5.9585600
5.9600800
5.9600800
5.9631300
5.9570300
5.9600800
5.9570300
5.9555100
5.9585600
5.9585600
5.9600800
5.9585600
5.9585600
5.9555100
5.9539800
5.9539800
5.9494000
5.9494000
5.9509300
5.9616100
5.9585600
5.9570300
5.9555100
5.9570300
5.9524500
5.9570300
5.9555100
5.9539800
5.9509300
5.9539800
5.9524500
5.9555100
5.9524500
5.9478800
5.9463500
5.9494000
5.9494000
5.9478800
5.9509300
5.9494000
5.9494000
5.9478800
5.9509300
5.9463500
5.9433000
5.9433000
5.9433000
5.9433000
5.9402500
5.9371900
5.9387200
5.9402500
5.9433000
5.9478800
5.9417700
5.9417700
5.9402500
5.9402500
5.9417700
5.9417700
5.9433000
5.9433000
5.9417700
5.9387200
5.9371900
5.9371900
5.9341400
5.9326200
5.9326200
5.9463500
5.9463500
5.9417700
5.9387200
5.9402500
5.9387200
5.9387200
5.9341400
5.9433000
5.9371900
5.9387200
5.9341400
5.9433000
5.9402500
5.9371900
5.9356700
5.9371900
5.9371900
5.9356700
5.9356700
5.9326200
5.9310900
5.9356700
5.9341400
5.9341400
5.9371900
5.9341400
5.9341400
5.9371900
5.9326200
5.9387200
5.9310900
5.9310900
5.9326200
5.9356700
5.9326200
5.9371900
5.9310900
5.9341400
5.9341400
5.9341400
5.9341400
5.9371900
5.9310900
5.9310900
5.9310900
5.9326200
5.9310900
5.9295700
5.9310900
5.9265100
5.9326200
5.9310900
5.9326200
5.9310900
5.9265100
5.9295700
5.9280400
5.9265100
5.9219400
5.9295700
5.9280400
5.9280400
5.9265100
5.9249900
5.9219400
5.9265100
5.9234600
5.9265100
5.9295700
5.9280400
5.9265100
5.9249900
5.9280400
5.9280400
5.9265100
5.9249900
5.9265100
5.9265100
5.9249900
5.9280400
5.9249900
5.9249900
5.9234600
5.9280400
5.9234600
5.9280400
5.9234600
5.9234600
5.9249900
5.9265100
5.9234600
5.9234600
5.9249900
5.9219400
5.9204100
5.9204100
5.9219400
5.9204100
5.9204100
5.9204100
5.9234600
5.9219400
5.9188800
5.9219400
5.9143100
5.9204100
5.9188800
5.9234600
5.9204100
5.9173600
5.9112500
5.9173600
5.9143100
5.9143100
5.9143100
5.9112500
5.9143100
5.9204100
5.9295700
5.9280400
5.9204100
5.9234600
5.9265100
5.9188800
5.9188800
5.9158300
5.9204100
5.9219400
5.9234600
5.9188800
5.9173600
5.9173600
5.9158300
5.9204100
5.9173600
5.9204100
5.9188800
5.9173600
5.9143100
5.9112500
5.9097300
5.9097300
5.9066800
5.9066800
5.9143100
5.9112500
5.9158300
5.9066800
5.9082000
5.9234600
5.9219400
5.9173600
5.9173600
5.9219400
5.9219400
5.9204100
5.9173600
5.9204100
5.9112500
5.9173600
5.9158300
5.9204100
5.9188800
5.9143100
5.9082000
5.9143100
5.9158300
5.9143100
5.9188800
5.9143100
5.9158300
5.9143100
5.9143100
5.9097300
5.9097300
5.9066800
5.9051500
5.9082000
5.9005700
5.9021000
5.9051500
5.9082000
5.9082000
5.9082000
5.9021000
5.9021000
5.8975200
5.8960000
5.9005700
5.9051500
5.9021000
5.9005700
5.9097300
5.9173600
5.9219400
5.9173600
5.9158300
5.9082000
5.9097300
5.9097300
5.9051500
5.9082000
5.9051500
5.9066800
5.9066800
5.9066800
5.9082000
5.9066800
5.8990500
5.9036300
5.9036300
5.9051500
5.9051500
5.9021000
5.9005700
5.9036300
5.9021000
5.9005700
5.9021000
5.9005700
5.8990500
5.8975200
5.9036300
5.9005700
5.9005700
5.8975200
5.8990500
5.9021000
5.8990500
5.9021000
5.8975200
5.8975200
5.9021000
5.9051500
5.8990500
5.8975200
5.8944700
5.8975200
5.8975200
5.9021000
5.9021000
5.9036300
5.8990500
5.8960000
5.9005700
5.8990500
5.8975200
5.8929400
5.8990500
5.8944700
5.8960000
5.8975200
5.8990500
5.8975200
5.8960000
5.8975200
5.8960000
5.9005700
5.8960000
5.8990500
5.8975200
5.9005700
5.9005700
5.8990500
5.8975200
5.8960000
5.8960000
5.8944700
5.8975200
5.8960000
5.8944700
5.8960000
5.8975200
5.8944700
5.8990500
5.8944700
5.8960000
5.8960000
5.8975200
5.8960000
5.8975200
5.8975200
5.8975200
5.9036300
5.9021000
5.9005700
5.8944700
5.8990500
5.8990500
5.8990500
5.8990500
5.9005700
5.9005700
5.8975200
5.8975200
5.8960000
5.8929400
5.8914200
5.8914200
5.8914200
5.8898900
5.8914200
5.8929400
5.8898900
5.8914200
5.8944700
5.8944700
5.8944700
5.8929400
5.8914200
5.8898900
5.8944700
5.8883700
5.8914200
5.8853100
5.8868400
5.8914200
5.8929400
5.8944700
5.8929400
5.8914200
5.8898900
5.8929400
5.8914200
5.8898900
5.8914200
5.8914200
5.8914200
5.8914200
5.8929400
5.8944700
5.8929400
5.8929400
5.8944700
5.8883700
5.8914200
5.8898900
5.8883700
5.8883700
5.8960000
5.8929400
5.8944700
5.8944700
5.8898900
5.8883700
5.8898900
5.8898900
5.8868400
5.8898900
5.8898900
5.8914200
5.8929400
5.8944700
5.8929400
5.8929400
5.8944700
5.8898900
5.8914200
5.8868400
5.8868400
5.8898900
5.8914200
5.8883700
5.8853100
5.8807400
5.8853100
5.8807400
5.8776900
5.8776900
5.8776900
5.8807400
5.8731100
5.8746300
5.8746300
5.8883700
5.8975200
5.8898900
5.8868400
5.8837900
5.8853100
5.8883700
5.8898900
5.8898900
5.8960000
5.8883700
5.8914200
5.8853100
5.8868400
5.8837900
5.8883700
5.8944700
5.8929400
5.8898900
5.8898900
5.8853100
5.8914200
5.8929400
5.8898900
5.8929400
5.8898900
5.8944700
5.8929400
5.8898900
5.8929400
5.8898900
5.8929400
5.8914200
5.8944700
5.8883700
5.8914200
5.8914200
5.8990500
5.8944700
5.8914200
5.8914200
5.8929400
5.8944700
5.8914200
5.8929400
5.8898900
5.8898900
5.8914200
5.8944700
5.8944700
5.8898900
5.8898900
5.8883700
5.8883700
5.8914200
5.8929400
5.8868400
5.8914200
5.8883700
5.8944700
5.8898900
5.8898900
5.8868400
5.8883700
5.8929400
5.8914200
5.8914200
5.8898900
5.8914200
5.8868400
5.8883700
5.8914200
5.8898900
5.8898900
5.8929400
5.8898900
5.8898900
5.8914200
5.8898900
5.8914200
5.8914200
5.8929400
5.8944700
5.8929400
5.8868400
5.8898900
5.8853100
5.8898900
5.8914200
5.8883700
5.8853100
5.8868400
5.8883700
5.8883700
5.8960000
5.8914200
5.8883700
5.8883700
5.8914200
5.8883700
5.8868400
5.8837900
5.8837900
5.8883700
5.8868400
5.8868400
5.8868400
5.8837900
5.8776900
5.8715800
5.8670000
5.8746300
5.8761600
5.8776900
5.8792100
5.8898900
5.9036300
5.9051500
5.8975200
5.8914200
5.8914200
5.8914200
5.8929400
5.8883700
5.8883700
5.8868400
5.8914200
5.8883700
5.8898900
5.8929400
5.8914200
5.8883700
5.8868400
5.8883700
5.8837900
5.8837900
5.8837900
5.8868400
5.8837900
5.8776900
5.8731100
5.8761600
5.8807400
5.8883700
5.8929400
5.8929400
5.8929400
5.8898900
5.8929400
5.8868400
5.8853100
5.8807400
5.8853100
5.8929400
5.8914200
5.8914200
5.8868400
5.8837900
5.8868400
5.8944700
5.8853100
5.8868400
5.8837900
5.8853100
5.8837900
5.8868400
5.8853100
5.8807400
5.8837900
5.8776900
5.8761600
5.8868400
5.8868400
5.8837900
5.8853100
5.8868400
5.8914200
5.8868400
5.8837900
5.8792100
5.8807400
5.8792100
5.8776900
5.8776900
5.8715800
5.8761600
5.8837900
5.8883700
5.8883700
5.8929400
5.8960000
5.8975200
5.8960000
5.8929400
5.8929400
5.8929400
5.8868400
5.8868400
5.8898900
5.8898900
5.8883700
5.8853100
5.8792100
5.8792100
5.8731100
5.8792100
5.8731100
5.8761600
5.8853100
5.8975200
5.8898900
5.8883700
5.8837900
5.8837900
5.8807400
5.8868400
5.8837900
5.8883700
5.8807400
5.8761600
5.8853100
5.8883700
5.8792100
5.8944700
5.9005700
5.8975200
5.8975200
5.8883700
5.8868400
5.8853100
5.8868400
5.8837900
5.8853100
5.8883700
5.8853100
5.8914200
5.8898900
5.8929400
5.8883700
5.8868400
5.8792100
5.8853100
5.8853100
5.8868400
5.8883700
5.8883700
5.8853100
5.8883700
5.8868400
5.8868400
5.8898900
5.8837900
5.8853100
5.8868400
5.8853100
5.8868400
5.8807400
5.8807400
5.8883700
5.8944700
5.8883700
5.8883700
5.8883700
5.8868400
5.8868400
5.8898900
5.8837900
5.8837900
5.8792100
5.8746300
5.8715800
5.8776900
5.8792100
5.8746300
5.8761600
5.8792100
5.8853100
5.8898900
5.8990500
5.8914200
5.8898900
5.8883700
5.8837900
5.8898900
5.8868400
5.8883700
5.8883700
5.8898900
5.8883700
5.8929400
5.8883700
5.8944700
5.8944700
5.8898900
5.8914200
5.8914200
5.8944700
5.8929400
5.8944700
5.8883700
5.8929400
5.8868400
5.8853100
5.8853100
5.8868400
5.8807400
5.8868400
5.8914200
5.8883700
5.8898900
5.8868400
5.8883700
5.8837900
5.8853100
5.8883700
5.8898900
5.8898900
5.8883700
5.8914200
5.8883700
5.8868400
5.8868400
5.8929400
5.8853100
5.8898900
5.8853100
5.8868400
5.8883700
5.8883700
5.8883700
5.8868400
5.8883700
5.8837900
5.8883700
5.8837900
5.8883700
5.8868400
5.8914200
5.8914200
5.8898900
5.8883700
5.8898900
5.8914200
5.8898900
5.8914200
5.8898900
5.8883700
5.8868400
5.8868400
5.8883700
5.8929400
5.8883700
5.8914200
5.8929400
5.8898900
5.8898900
5.8883700
5.8914200
5.8898900
5.8960000
5.8898900
5.8914200
5.8898900
5.8898900
5.8883700
5.8914200
5.8898900
5.8929400
5.8929400
5.8914200
5.8914200
5.8914200
5.8914200
5.8929400
5.8944700
5.8944700
5.8975200
5.8960000
5.8929400
5.8944700
5.8929400
5.8944700
5.8929400
5.8944700
5.8914200
5.8944700
5.8929400
5.8960000
5.8944700
5.8944700
5.8929400
5.8914200
5.8929400
5.8944700
5.8960000
5.8975200
5.8929400
5.8929400
5.8975200
5.8960000
5.8975200
5.8944700
5.8944700
5.8975200
5.8975200
5.8975200
5.8975200
5.8960000
5.8975200
5.8990500
5.8990500
5.8944700
5.8944700
5.8975200
5.8990500
5.8990500
5.8975200
5.8960000
5.8990500
5.8944700
5.8929400
5.8975200
5.8990500
5.8944700
5.8929400
5.8960000
5.8929400
5.8929400
5.8960000
5.8929400
5.8914200
5.8929400
5.8929400
5.8944700
5.8929400
5.8914200
5.8960000
5.8990500
5.8975200
5.8960000
5.8914200
5.8944700
5.8975200
5.8960000
5.8960000
5.9021000
5.8944700
5.8944700
5.8975200
5.8944700
5.8960000
5.8929400
5.8944700
5.8975200
5.8960000
5.9005700
5.8975200
5.8960000
5.8960000
5.9005700
5.8990500
5.9021000
5.8975200
5.8975200
5.8975200
5.9021000
5.9036300
5.9066800
5.9051500
5.9021000
5.8990500
5.9021000
5.9021000
5.8990500
5.9021000
5.9036300
5.9036300
5.9005700
5.9036300
5.8990500
5.9005700
5.9005700
5.9005700
5.9051500
5.9021000
5.8990500
5.9021000
5.9021000
5.9051500
5.9021000
5.8990500
5.9021000
5.9066800
5.9036300
5.9066800
5.9112500
5.9082000
5.9082000
5.9082000
5.9051500
5.9097300
5.9082000
5.9082000
5.9066800
5.9066800
5.9097300
5.9097300
5.9097300
5.9112500
5.9112500
5.9097300
5.9097300
5.9051500
5.9097300
5.9097300
5.9143100
5.9082000
5.9112500
5.9066800
5.9097300
5.9051500
5.9143100
5.9143100
5.9097300
5.9097300
5.9097300
5.9112500
5.9112500
5.9097300
5.9112500
5.9112500
5.9143100
5.9112500
5.9143100
5.9082000
5.9066800
5.9082000
5.9158300
5.9112500
5.9112500
5.9082000
5.9097300
5.9112500
5.9097300
5.9143100
5.9143100
5.9112500
5.9097300
5.9143100
5.9143100
5.9112500
5.9112500
5.9158300
5.9173600
5.9158300
5.9188800
5.9173600
5.9158300
5.9143100
5.9188800
5.9173600
5.9143100
5.9143100
5.9112500
5.9173600
5.9188800
5.9173600
5.9188800
5.9173600
5.9158300
5.9158300
5.9173600
5.9173600
5.9158300
5.9173600
5.9112500
5.9143100
5.9112500
5.9112500
5.9082000
5.9112500
5.9112500
5.9112500
5.9112500
5.9082000
5.9112500
5.9097300
5.9158300
5.9112500
5.9097300
5.9082000
5.9097300
5.9143100
5.9097300
5.9173600
5.9173600
5.9143100
5.9097300
5.9158300
5.9188800
5.9173600
5.9143100
5.9082000
5.9082000
5.9112500
5.9112500
5.9082000
5.9082000
5.9036300
5.9036300
5.9021000
5.9097300
5.9112500
5.9112500
5.9143100
5.9173600
5.9188800
5.9265100
5.9234600
5.9188800
5.9173600
5.9249900
5.9234600
5.9204100
5.9188800
5.9158300
5.9204100
5.9234600
5.9188800
5.9188800
5.9173600
5.9158300
5.9143100
5.9143100
5.9112500
5.9097300
5.9173600
5.9204100
5.9188800
5.9265100
5.9249900
5.9234600
5.9204100
5.9234600
5.9234600
5.9265100
5.9204100
5.9219400
5.9265100
5.9219400
5.9265100
5.9204100
5.9234600
5.9204100
5.9204100
5.9219400
5.9219400
5.9219400
5.9234600
5.9234600
5.9204100
5.9204100
5.9173600
5.9204100
5.9188800
5.9234600
5.9204100
5.9173600
5.9158300
5.9188800
5.9143100
5.9249900
5.9234600
5.9188800
5.9188800
5.9219400
5.9173600
5.9204100
5.9219400
5.9204100
5.9204100
5.9204100
5.9188800
5.9188800
5.9158300
5.9219400
5.9204100
5.9219400
5.9219400
5.9219400
5.9173600
5.9204100
5.9234600
5.9249900
5.9265100
5.9265100
5.9219400
5.9234600
5.9249900
5.9204100
5.9219400
5.9188800
5.9219400
5.9219400
5.9234600
5.9249900
5.9249900
5.9219400
5.9188800
5.9219400
5.9219400
5.9219400
5.9234600
5.9219400
5.9234600
5.9234600
5.9234600
5.9219400
5.9249900
5.9234600
5.9204100
5.9249900
5.9234600
5.9219400
5.9219400
5.9219400
5.9219400
5.9188800
5.9188800
5.9188800
5.9188800
5.9219400
5.9219400
5.9219400
5.9204100
5.9219400
5.9234600
5.9249900
5.9234600
5.9234600
5.9204100
5.9188800
5.9234600
5.9234600
5.9249900
5.9249900
5.9234600
5.9188800
5.9219400
5.9219400
5.9249900
5.9234600
5.9219400
5.9188800
5.9249900
5.9204100
5.9219400
5.9234600
5.9234600
5.9234600
5.9265100
5.9219400
5.9204100
5.9219400
5.9234600
5.9188800
5.9204100
5.9204100
5.9204100
5.9219400
5.9188800
5.9219400
5.9204100
5.9158300
5.9188800
5.9204100
5.9219400
5.9219400
5.9249900
5.9158300
5.9112500
5.9143100
5.9158300
5.9158300
5.9112500
5.9173600
5.9188800
5.9219400
5.9204100
5.9219400
5.9188800
5.9219400
5.9219400
5.9219400
5.9204100
5.9234600
5.9204100
5.9173600
5.9188800
5.9188800
5.9219400
5.9158300
5.9173600
5.9173600
5.9234600
5.9204100
5.9188800
5.9188800
5.9173600
5.9188800
5.9204100
5.9158300
5.9173600
5.9188800
5.9204100
5.9219400
5.9173600
5.9188800
5.9188800
5.9204100
5.9158300
5.9188800
5.9204100
5.9204100
5.9234600
5.9234600
5.9265100
5.9219400
5.9234600
5.9204100
5.9219400
5.9219400
5.9249900
5.9234600
5.9204100
5.9234600
5.9219400
5.9234600
5.9280400
5.9219400
5.9219400
5.9234600
5.9234600
5.9249900
5.9280400
5.9249900
5.9219400
5.9234600
5.9249900
5.9249900
5.9265100
5.9188800
5.9234600
5.9249900
5.9249900
5.9249900
5.9204100
5.9249900
5.9265100
5.9265100
5.9234600
5.9265100
5.9204100
5.9249900
5.9265100
5.9295700
5.9265100
5.9249900
5.9265100
5.9249900
5.9219400
5.9280400
5.9310900
5.9265100
5.9265100
5.9265100
5.9265100
5.9234600
5.9265100
5.9249900
5.9234600
5.9234600
5.9219400
5.9265100
5.9173600
5.9219400
5.9188800
5.9219400
5.9234600
5.9234600
5.9173600
5.9234600
5.9234600
5.9280400
5.9310900
5.9280400
5.9265100
5.9234600
5.9280400
5.9249900
5.9265100
5.9265100
5.9234600
5.9234600
5.9295700
5.9295700
5.9249900
5.9295700
5.9249900
5.9295700
5.9234600
5.9265100
5.9234600
5.9280400
5.9295700
5.9326200
5.9326200
5.9280400
5.9280400
5.9265100
5.9265100
5.9295700
5.9326200
5.9265100
5.9295700
5.9310900
5.9295700
5.9341400
5.9310900
5.9295700
5.9310900
5.9326200
5.9310900
5.9310900
5.9295700
5.9265100
5.9249900
5.9280400
5.9280400
5.9219400
5.9204100
5.9219400
5.9249900
5.9295700
5.9310900
5.9326200
5.9295700
5.9265100
5.9295700
5.9280400
5.9249900
5.9234600
5.9280400
5.9295700
5.9341400
5.9356700
5.9356700
5.9341400
5.9326200
5.9326200
5.9280400
5.9310900
5.9249900
5.9280400
5.9265100
5.9341400
5.9310900
5.9295700
5.9326200
5.9280400
5.9295700
5.9371900
5.9371900
5.9341400
5.9326200
5.9295700
5.9326200
5.9341400
5.9356700
5.9310900
5.9341400
5.9326200
5.9341400
5.9341400
5.9326200
5.9341400
5.9310900
5.9371900
5.9326200
5.9326200
5.9310900
5.9295700
5.9295700
5.9326200
5.9371900
5.9326200
5.9341400
5.9310900
5.9341400
5.9326200
5.9310900
5.9265100
5.9295700
5.9295700
5.9356700
5.9402500
5.9356700
5.9371900
5.9356700
5.9356700
5.9310900
5.9341400
5.9280400
5.9341400
5.9310900
5.9341400
5.9341400
5.9356700
5.9310900
5.9326200
5.9295700
5.9326200
5.9326200
5.9295700
5.9310900
5.9295700
5.9280400
5.9310900
5.9326200
5.9280400
5.9295700
5.9310900
5.9310900
5.9326200
5.9280400
5.9310900
5.9295700
5.9310900
5.9310900
5.9310900
5.9265100
5.9265100
5.9295700
5.9341400
5.9310900
5.9326200
5.9265100
5.9295700
5.9295700
5.9265100
5.9280400
5.9249900
5.9265100
5.9265100
5.9295700
5.9326200
5.9310900
5.9310900
5.9310900
5.9295700
5.9280400
5.9295700
5.9265100
5.9295700
5.9295700
5.9326200
5.9326200
5.9326200
5.9326200
5.9295700
5.9295700
5.9310900
5.9341400
5.9326200
5.9341400
5.9326200
5.9326200
5.9310900
5.9295700
5.9280400
5.9265100
5.9280400
5.9295700
5.9310900
5.9326200
5.9326200
5.9295700
5.9326200
5.9356700
5.9371900
5.9310900
5.9265100
5.9265100
5.9280400
5.9265100
5.9341400
5.9341400
5.9387200
5.9356700
5.9341400
5.9356700
5.9326200
5.9341400
5.9341400
5.9341400
5.9387200
5.9356700
5.9341400
5.9341400
5.9371900
5.9356700
5.9356700
5.9310900
5.9341400
5.9295700
5.9310900
5.9295700
5.9295700
5.9310900
5.9265100
5.9265100
5.9326200
5.9280400
5.9265100
5.9280400
5.9265100
5.9310900
5.9310900
5.9326200
5.9310900
5.9295700
5.9310900
5.9295700
5.9295700
5.9280400
5.9295700
5.9295700
5.9356700
5.9310900
5.9341400
5.9310900
5.9356700
5.9310900
5.9295700
5.9341400
5.9341400
5.9326200
5.9326200
5.9356700
5.9310900
5.9341400
5.9280400
5.9326200
5.9295700
5.9356700
5.9341400
5.9341400
5.9310900
5.9280400
5.9341400
5.9326200
5.9326200
5.9280400
5.9280400
5.9280400
5.9326200
5.9295700
5.9295700
5.9280400
5.9280400
5.9295700
5.9310900
5.9371900
5.9295700
5.9295700
5.9265100
5.9280400
5.9280400
5.9310900
5.9249900
5.9295700
5.9295700
5.9295700
5.9326200
5.9310900
5.9310900
5.9295700
5.9326200
5.9326200
5.9356700
5.9295700
5.9310900
5.9326200
5.9310900
5.9371900
5.9387200
5.9326200
5.9326200
5.9356700
5.9356700
5.9371900
5.9310900
5.9326200
5.9326200
5.9341400
5.9326200
5.9310900
5.9280400
5.9280400
5.9310900
5.9326200
5.9326200
5.9310900
5.9341400
5.9341400
5.9402500
5.9310900
5.9356700
5.9326200
5.9326200
5.9310900
5.9341400
5.9295700
5.9265100
5.9280400
5.9280400
5.9341400
5.9310900
5.9341400
5.9295700
5.9371900
5.9371900
5.9371900
5.9341400
5.9371900
5.9371900
5.9371900
5.9371900
5.9387200
5.9356700
5.9356700
5.9371900
5.9341400
5.9341400
5.9356700
5.9433000
5.9356700
5.9326200
5.9326200
5.9326200
5.9326200
5.9356700
5.9356700
5.9356700
5.9463500
5.9417700
5.9387200
5.9356700
5.9371900
5.9387200
5.9387200
5.9371900
5.9310900
5.9371900
5.9341400
5.9371900
5.9341400
5.9356700
5.9356700
5.9326200
5.9326200
5.9371900
5.9387200
5.9387200
5.9341400
5.9356700
5.9387200
5.9356700
5.9387200
5.9356700
5.9341400
5.9387200
5.9387200
5.9417700
5.9371900
5.9356700
5.9341400
5.9402500
5.9387200
5.9356700
5.9310900
5.9356700
5.9371900
5.9341400
5.9371900
5.9356700
5.9371900
5.9326200
5.9341400
5.9326200
5.9371900
5.9356700
5.9402500
5.9402500
5.9387200
5.9356700
5.9371900
5.9356700
5.9326200
5.9326200
5.9326200
5.9341400
5.9310900
5.9295700
5.9341400
5.9356700
5.9310900
5.9341400
5.9326200
5.9326200
5.9295700
5.9326200
5.9356700
5.9341400
5.9310900
5.9265100
5.9326200
5.9356700
5.9402500
5.9356700
5.9356700
5.9326200
5.9326200
5.9341400
5.9341400
5.9356700
5.9341400
5.9356700
5.9341400
5.9371900
5.9295700
5.9326200
5.9295700
5.9326200
5.9310900
5.9356700
5.9265100
5.9295700
5.9295700
5.9295700
5.9310900
5.9326200
5.9341400
5.9310900
5.9341400
5.9356700
5.9341400
5.9295700
5.9341400
5.9341400
5.9326200
5.9341400
5.9326200
5.9326200
5.9326200
5.9356700
5.9356700
5.9371900
5.9341400
5.9295700
5.9310900
5.9356700
5.9371900
5.9326200
5.9341400
5.9356700
5.9387200
5.9356700
5.9371900
5.9326200
5.9326200
5.9371900
5.9387200
5.9356700
5.9326200
5.9356700
5.9326200
5.9356700
5.9356700
5.9341400
5.9310900
5.9341400
5.9280400
5.9326200
5.9341400
5.9356700
5.9310900
5.9265100
5.9310900
5.9249900
5.9326200
5.9295700
5.9295700
5.9280400
5.9402500
5.9494000
5.9417700
5.9402500
5.9356700
5.9402500
5.9402500
5.9417700
5.9341400
5.9371900
5.9387200
5.9402500
5.9356700
5.9371900
5.9341400
5.9371900
5.9341400
5.9341400
5.9356700
5.9341400
5.9356700
5.9356700
5.9341400
5.9326200
5.9341400
5.9280400
5.9295700
5.9310900
5.9326200
5.9326200
5.9326200
5.9341400
5.9341400
5.9356700
5.9326200
5.9341400
5.9310900
5.9341400
5.9326200
5.9326200
5.9371900
5.9356700
5.9341400
5.9310900
5.9341400
5.9326200
5.9341400
5.9295700
5.9326200
5.9310900
5.9356700
5.9326200
5.9356700
5.9326200
5.9341400
5.9341400
5.9310900
5.9341400
5.9280400
5.9341400
5.9295700
5.9310900
5.9341400
5.9310900
5.9310900
5.9326200
5.9295700
5.9295700
5.9326200
5.9310900
5.9310900
5.9326200
5.9265100
5.9280400
5.9295700
5.9249900
5.9265100
5.9234600
5.9295700
5.9265100
5.9265100
5.9249900
5.9310900
5.9371900
5.9341400
5.9310900
5.9326200
5.9310900
5.9295700
5.9310900
5.9310900
5.9310900
5.9219400
5.9249900
5.9265100
5.9280400
5.9280400
5.9265100
5.9280400
5.9249900
5.9295700
5.9326200
5.9310900
5.9295700
5.9310900
5.9371900
5.9341400
5.9341400
5.9295700
5.9295700
5.9326200
5.9326200
5.9341400
5.9326200
5.9280400
5.9295700
5.9280400
5.9326200
5.9310900
5.9295700
5.9280400
5.9265100
5.9234600
5.9265100
5.9265100
5.9219400
5.9204100
5.9219400
5.9265100
5.9295700
5.9265100
5.9234600
5.9265100
5.9295700
5.9280400
5.9265100
5.9249900
5.9249900
5.9249900
5.9249900
5.9280400
5.9310900
5.9265100
5.9265100
5.9265100
5.9280400
5.9295700
5.9234600
5.9265100
5.9234600
5.9265100
5.9249900
5.9249900
5.9219400
5.9219400
5.9234600
5.9295700
5.9356700
5.9295700
5.9295700
5.9265100
5.9310900
5.9326200
5.9295700
5.9295700
5.9295700
5.9265100
5.9326200
5.9326200
5.9265100
5.9295700
5.9295700
5.9265100
5.9310900
5.9295700
5.9265100
5.9265100
5.9280400
5.9295700
5.9295700
5.9265100
5.9280400
5.9234600
5.9280400
5.9265100
5.9265100
5.9265100
5.9280400
5.9234600
5.9249900
5.9280400
5.9295700
5.9249900
5.9249900
5.9249900
5.9234600
5.9280400
5.9234600
5.9280400
5.9249900
5.9265100
5.9265100
5.9280400
5.9219400
5.9234600
5.9249900
5.9265100
5.9280400
5.9265100
5.9280400
5.9249900
5.9295700
5.9295700
5.9310900
5.9326200
5.9310900
5.9280400
5.9310900
5.9310900
5.9295700
5.9295700
5.9295700
5.9326200
5.9310900
5.9341400
5.9310900
5.9280400
5.9310900
5.9295700
5.9280400
5.9234600
5.9219400
5.9219400
5.9234600
5.9204100
5.9158300
5.9219400
5.9326200
5.9341400
5.9341400
5.9295700
5.9310900
5.9295700
5.9310900
5.9326200
5.9295700
5.9310900
5.9249900
5.9280400
5.9295700
5.9326200
5.9280400
5.9310900
5.9280400
5.9265100
5.9280400
5.9234600
5.9249900
5.9234600
5.9249900
5.9280400
5.9310900
5.9265100
5.9295700
5.9310900
5.9295700
5.9280400
5.9326200
5.9310900
5.9295700
5.9295700
5.9265100
5.9280400
5.9295700
5.9326200
5.9295700
5.9310900
5.9295700
5.9265100
5.9326200
5.9310900
5.9280400
5.9280400
5.9310900
5.9310900
5.9310900
5.9265100
5.9280400
5.9310900
5.9310900
5.9356700
5.9356700
5.9249900
5.9280400
5.9341400
5.9295700
5.9310900
5.9265100
5.9310900
5.9280400
5.9326200
5.9310900
5.9295700
5.9295700
5.9326200
5.9326200
5.9295700
5.9326200
5.9310900
5.9326200
5.9326200
5.9341400
5.9310900
5.9326200
5.9295700
5.9310900
5.9265100
5.9295700
5.9341400
5.9310900
5.9326200
5.9310900
5.9310900
5.9310900
5.9265100
5.9234600
5.9234600
5.9204100
5.9219400
5.9249900
5.9188800
5.9219400
5.9341400
5.9341400
5.9310900
5.9310900
5.9310900
5.9341400
5.9310900
5.9295700
5.9356700
5.9356700
5.9295700
5.9326200
5.9310900
5.9265100
5.9326200
5.9280400
5.9280400
5.9265100
5.9310900
5.9295700
5.9295700
5.9295700
5.9249900
5.9295700
5.9280400
5.9280400
5.9249900
5.9234600
5.9219400
5.9234600
5.9173600
5.9173600
5.9204100
5.9173600
5.9158300
5.9341400
5.9371900
5.9280400
5.9265100
5.9265100
5.9280400
5.9280400
5.9280400
5.9249900
5.9249900
5.9265100
5.9265100
5.9295700
5.9219400
5.9265100
5.9249900
5.9295700
5.9295700
5.9295700
5.9249900
5.9234600
5.9249900
5.9280400
5.9341400
5.9341400
5.9295700
5.9280400
5.9326200
5.9234600
5.9265100
5.9249900
5.9265100
5.9280400
5.9265100
5.9280400
5.9234600
5.9219400
5.9188800
5.9310900
5.9310900
5.9341400
5.9295700
5.9295700
5.9280400
5.9295700
5.9265100
5.9265100
5.9249900
5.9249900
5.9219400
5.9310900
5.9265100
5.9280400
5.9280400
5.9280400
5.9295700
5.9295700
5.9265100
5.9234600
5.9295700
5.9280400
5.9295700
5.9341400
5.9310900
5.9280400
5.9249900
5.9249900
5.9265100
5.9265100
5.9219400
5.9249900
5.9234600
5.9219400
5.9234600
5.9234600
5.9204100
5.9204100
5.9265100
5.9219400
5.9295700
5.9265100
5.9295700
5.9265100
5.9295700
5.9310900
5.9326200
5.9295700
5.9280400
5.9265100
5.9265100
5.9310900
5.9295700
5.9265100
5.9310900
5.9326200
5.9310900
5.9295700
5.9310900
5.9265100
5.9249900
5.9295700
5.9295700
5.9249900
5.9265100
5.9249900
5.9280400
5.9249900
5.9280400
5.9249900
5.9280400
5.9295700
5.9310900
5.9295700
5.9295700
5.9265100
5.9249900
5.9280400
5.9249900
5.9234600
5.9143100
5.9188800
5.9188800
5.9204100
5.9219400
5.9234600
5.9234600
5.9310900
5.9326200
5.9219400
5.9265100
5.9265100
5.9295700
5.9265100
5.9280400
5.9265100
5.9265100
5.9234600
5.9249900
5.9249900
5.9265100
5.9280400
5.9265100
5.9249900
5.9249900
5.9265100
5.9249900
5.9249900
5.9249900
5.9265100
5.9234600
5.9326200
5.9295700
5.9234600
5.9249900
5.9265100
5.9265100
5.9265100
5.9265100
5.9265100
5.9249900
5.9249900
5.9219400
5.9265100
5.9234600
5.9204100
5.9219400
5.9234600
5.9219400
5.9249900
5.9204100
5.9234600
5.9204100
5.9204100
5.9188800
5.9249900
5.9204100
5.9188800
5.9249900
5.9234600
5.9265100
5.9143100
5.9219400
5.9173600
5.9234600
5.9219400
5.9234600
5.9219400
5.9219400
5.9234600
5.9219400
5.9234600
5.9219400
5.9204100
5.9188800
5.9204100
5.9188800
5.9188800
5.9219400
5.9188800
5.9143100
5.9204100
5.9204100
5.9188800
5.9219400
5.9204100
5.9188800
5.9188800
5.9204100
5.9173600
5.9173600
5.9188800
5.9204100
5.9204100
5.9204100
5.9204100
5.9143100
5.9188800
5.9173600
5.9173600
5.9112500
5.9143100
5.9143100
5.9173600
5.9219400
5.9173600
5.9173600
5.9173600
5.9219400
5.9188800
5.9204100
5.9188800
5.9188800
5.9188800
5.9204100
5.9204100
5.9204100
5.9158300
5.9158300
5.9173600
5.9204100
5.9219400
5.9188800
5.9204100
5.9188800
5.9219400
5.9219400
5.9219400
5.9219400
5.9234600
5.9188800
5.9219400
5.9234600
5.9204100
5.9219400
5.9204100
5.9188800
5.9158300
5.9173600
5.9143100
5.9097300
5.9143100
5.9143100
5.9143100
5.9219400
5.9265100
5.9249900
5.9249900
5.9234600
5.9234600
5.9188800
5.9219400
5.9234600
5.9219400
5.9219400
5.9265100
5.9204100
5.9234600
5.9234600
5.9249900
5.9204100
5.9188800
5.9219400
5.9188800
5.9249900
5.9219400
5.9234600
5.9204100
5.9204100
5.9265100
5.9249900
5.9249900
5.9249900
5.9234600
5.9280400
5.9295700
5.9204100
5.9310900
5.9295700
5.9204100
5.9188800
5.9234600
5.9234600
5.9265100
5.9234600
5.9234600
5.9249900
5.9234600
5.9234600
5.9188800
5.9173600
5.9158300
5.9112500
5.9143100
5.9143100
5.9158300
5.9112500
5.9173600
5.9234600
5.9234600
5.9234600
5.9265100
5.9219400
5.9204100
5.9249900
5.9295700
5.9234600
5.9204100
5.9234600
5.9219400
5.9219400
5.9234600
5.9234600
5.9234600
5.9280400
5.9249900
5.9234600
5.9219400
5.9219400
5.9234600
5.9219400
5.9234600
5.9204100
5.9188800
5.9219400
5.9249900
5.9219400
5.9265100
5.9219400
5.9204100
5.9219400
5.9234600
5.9234600
5.9219400
5.9219400
5.9234600
5.9249900
5.9204100
5.9234600
5.9204100
5.9204100
5.9204100
5.9234600
5.9249900
5.9188800
5.9219400
5.9204100
5.9204100
5.9204100
5.9219400
5.9173600
5.9173600
5.9219400
5.9204100
5.9249900
5.9265100
5.9204100
5.9219400
5.9249900
5.9234600
5.9219400
5.9188800
5.9204100
5.9173600
5.9204100
5.9188800
5.9143100
5.9112500
5.9112500
5.9112500
5.9112500
5.9234600
5.9204100
5.9204100
5.9234600
5.9280400
5.9249900
5.9234600
5.9219400
5.9188800
5.9158300
5.9234600
5.9204100
5.9188800
5.9204100
5.9188800
5.9188800
5.9188800
5.9219400
5.9234600
5.9234600
5.9204100
5.9219400
5.9234600
5.9234600
5.9219400
5.9204100
5.9249900
5.9204100
5.9219400
5.9188800
5.9188800
5.9204100
5.9173600
5.9249900
5.9265100
5.9219400
5.9204100
5.9219400
5.9188800
5.9234600
5.9219400
5.9173600
5.9188800
5.9219400
5.9204100
5.9188800
5.9188800
5.9173600
5.9219400
5.9173600
5.9188800
5.9188800
5.9173600
5.9204100
5.9219400
5.9204100
5.9173600
5.9158300
5.9173600
5.9158300
5.9204100
5.9204100
5.9158300
5.9173600
5.9158300
5.9158300
5.9173600
5.9158300
5.9158300
5.9143100
5.9158300
5.9173600
5.9143100
5.9082000
5.9097300
5.9188800
5.9219400
5.9219400
5.9204100
5.9143100
5.9158300
5.9188800
5.9204100
5.9219400
5.9204100
5.9158300
5.9173600
5.9204100
5.9158300
5.9173600
5.9143100
5.9158300
5.9143100
5.9173600
5.9112500
5.9173600
5.9158300
5.9143100
5.9173600
5.9143100
5.9204100
5.9188800
5.9173600
5.9188800
5.9234600
5.9204100
5.9219400
5.9112500
5.9158300
5.9188800
5.9173600
5.9188800
5.9188800
5.9188800
5.9158300
5.9158300
5.9158300
5.9158300
5.9112500
5.9097300
5.9112500
5.9112500
5.9158300
5.9143100
5.9158300
5.9158300
5.9143100
5.9188800
5.9143100
5.9158300
5.9112500
5.9112500
5.9112500
5.9112500
5.9188800
5.9143100
5.9082000
5.9097300
5.9188800
5.9204100
5.9158300
5.9204100
5.9158300
5.9204100
5.9173600
5.9158300
5.9143100
5.9143100
5.9173600
5.9173600
5.9188800
5.9112500
5.9112500
5.9173600
5.9188800
5.9188800
5.9219400
5.9219400
5.9188800
5.9158300
5.9158300
5.9173600
5.9143100
5.9112500
5.9143100
5.9112500
5.9173600
5.9158300
5.9112500
5.9097300
5.9066800
5.9082000
5.9066800
5.9066800
5.9112500
5.9082000
5.9188800
5.9219400
5.9143100
5.9143100
5.9112500
5.9112500
5.9173600
5.9158300
5.9234600
5.9173600
5.9204100
5.9234600
5.9204100
5.9219400
5.9158300
5.9188800
5.9143100
5.9188800
5.9188800
5.9158300
5.9158300
5.9112500
5.9173600
5.9112500
5.9188800
5.9158300
5.9143100
5.9158300
5.9204100
5.9173600
5.9158300
5.9173600
5.9143100
5.9143100
5.9112500
5.9173600
5.9097300
5.9097300
5.9082000
5.9082000
5.9112500
5.9097300
5.9082000
5.9097300
5.9066800
5.9066800
5.9051500
5.9097300
5.9158300
5.9112500
5.9082000
5.9097300
5.9097300
5.9021000
5.9066800
5.9097300
5.9097300
5.9158300
5.9143100
5.9097300
5.9097300
5.9112500
5.9097300
5.9158300
5.9112500
5.9097300
5.9112500
5.9097300
5.9143100
5.9082000
5.9112500
5.9173600
5.9097300
5.9082000
5.9143100
5.9112500
5.9112500
5.9112500
5.9173600
5.9188800
5.9173600
5.9173600
5.9173600
5.9097300
5.9173600
5.9188800
5.9112500
5.9158300
5.9143100
5.9158300
5.9143100
5.9158300
5.9158300
5.9112500
5.9097300
5.9112500
5.9143100
5.9143100
5.9158300
5.9112500
5.9158300
5.9158300
5.9188800
5.9143100
5.9143100
5.9173600
5.9143100
5.9158300
5.9188800
5.9097300
5.9158300
5.9173600
5.9158300
5.9204100
5.9158300
5.9188800
5.9082000
5.9143100
5.9143100
5.9097300
5.9143100
5.9082000
5.9097300
5.9112500
5.9112500
5.9112500
5.9112500
5.9112500
5.9158300
5.9173600
5.9173600
5.9158300
5.9158300
5.9112500
5.9173600
5.9143100
5.9097300
5.9097300
5.9097300
5.9143100
5.9082000
5.9143100
5.9097300
5.9066800
5.9112500
5.9158300
5.9158300
5.9112500
5.9097300
5.9082000
5.9143100
5.9097300
5.9143100
5.9097300
5.9112500
5.9173600
5.9143100
5.9173600
5.9188800
5.9158300
5.9143100
5.9188800
5.9112500
5.9188800
5.9143100
5.9158300
5.9188800
5.9204100
5.9173600
5.9112500
5.9143100
5.9082000
5.9112500
5.9097300
5.9173600
5.9112500
5.9173600
5.9173600
5.9204100
5.9158300
5.9158300
5.9158300
5.9158300
5.9112500
5.9158300
5.9158300
5.9143100
5.9143100
5.9112500
5.9112500
5.9082000
5.9158300
5.9066800
5.9112500
5.9112500
5.9143100
5.9143100
5.9097300
5.9112500
5.9112500
5.9158300
5.9143100
5.9143100
5.9097300
5.9112500
5.9143100
5.9143100
5.9158300
5.9173600
5.9112500
5.9112500
5.9158300
5.9112500
5.9143100
5.9143100
5.9112500
5.9143100
5.9173600
5.9173600
5.9158300
5.9143100
5.9112500
5.9173600
5.9173600
5.9173600
5.9143100
5.9143100
5.9158300
5.9173600
5.9112500
5.9173600
5.9158300
5.9112500
5.9066800
5.9097300
5.9066800
5.9051500
5.9036300
5.9005700
5.9021000
5.9005700
5.9066800
5.9143100
5.9204100
5.9204100
5.9219400
5.9249900
5.9188800
5.9158300
5.9143100
5.9158300
5.9158300
5.9158300
5.9143100
5.9112500
5.9143100
5.9097300
5.9143100
5.9158300
5.9112500
5.9097300
5.9173600
5.9082000
5.9158300
5.9112500
5.9097300
5.9082000
5.9082000
5.9097300
5.9082000
5.9097300
5.9112500
5.9143100
5.9082000
5.9143100
5.9097300
5.9112500
5.9097300
5.9143100
5.9112500
5.9051500
5.9082000
5.9051500
5.9021000
5.9051500
5.9066800
5.9051500
5.9066800
5.9066800
5.9082000
5.9082000
5.9066800
5.9036300
5.9082000
5.9082000
5.9097300
5.9082000
5.9066800
5.9066800
5.9051500
5.9082000
5.9051500
5.9082000
5.9051500
5.9097300
5.9082000
5.9082000
5.9112500
5.9143100
5.9097300
5.9082000
5.9143100
5.9112500
5.9112500
5.9097300
5.9112500
5.9112500
5.9143100
5.9112500
5.9158300
5.9112500
5.9097300
5.9158300
5.9097300
5.9066800
5.9066800
5.9036300
5.9036300
5.9036300
5.9021000
5.9097300
5.9158300
5.9097300
5.9082000
5.9143100
5.9112500
5.9082000
5.9066800
5.9066800
5.9112500
5.9112500
5.9112500
5.9066800
5.9097300
5.9082000
5.9051500
5.9082000
5.9082000
5.9066800
5.9036300
5.9051500
5.9066800
5.9051500
5.9051500
5.9066800
5.9097300
5.9036300
5.9097300
5.9097300
5.9066800
5.9082000
5.9051500
5.9021000
5.9051500
5.9021000
5.9051500
5.9036300
5.9066800
5.9097300
5.9097300
5.9066800
5.9051500
5.9066800
5.9082000
5.9066800
5.9021000
5.9097300
5.9051500
5.9066800
5.9066800
5.9066800
5.9097300
5.9036300
5.9021000
5.9082000
5.9066800
5.9036300
5.9051500
5.9021000
5.9005700
5.9021000
5.9021000
5.8990500
5.8990500
5.8990500
5.9005700
5.9021000
5.9036300
5.8990500
5.8990500
5.9097300
5.9112500
5.9066800
5.8990500
5.9082000
5.9082000
5.9097300
5.9097300
5.9066800
5.9051500
5.9066800
5.9097300
5.9066800
5.9051500
5.9036300
5.9021000
5.9051500
5.9066800
5.9066800
5.9066800
5.9066800
5.9036300
5.9066800
5.9021000
5.9051500
5.9021000
5.9036300
5.9021000
5.9066800
5.9005700
5.8990500
5.9036300
5.9036300
5.9005700
5.9036300
5.9036300
5.9021000
5.9036300
5.9005700
5.9051500
5.9005700
5.9021000
5.9036300
5.9021000
5.9005700
5.9005700
5.9036300
5.9005700
5.9021000
5.9066800
5.9082000
5.9082000
5.9051500
5.9036300
5.9036300
5.9036300
5.9021000
5.9051500
5.9021000
5.8990500
5.9021000
5.9051500
5.8990500
5.9051500
5.9036300
5.9066800
5.9036300
5.9082000
5.9066800
5.9051500
5.9051500
5.9005700
5.9036300
5.9021000
5.9036300
5.9021000
5.9021000
5.9005700
5.9021000
5.9021000
5.9097300
5.9097300
5.9051500
5.9036300
5.9066800
5.9051500
5.9051500
5.9005700
5.9021000
5.9066800
5.9036300
5.9036300
5.9005700
5.9005700
5.9005700
5.8990500
5.9005700
5.9005700
5.8975200
5.9005700
5.8990500
5.9036300
5.9021000
5.9005700
5.9036300
5.9021000
5.9021000
5.9021000
5.9066800
5.8960000
5.9005700
5.9066800
5.9036300
5.9036300
5.8990500
5.9036300
5.9036300
5.9036300
5.9021000
5.9021000
5.9005700
5.9005700
5.9021000
5.9021000
5.9036300
5.8960000
5.8990500
5.8990500
5.9005700
5.8975200
5.9005700
5.8960000
5.8960000
5.8929400
5.9021000
5.8990500
5.8975200
5.8990500
5.8944700
5.9005700
5.9066800
5.9066800
5.9005700
5.9021000
5.9005700
5.8990500
5.8990500
5.8990500
5.9005700
5.9005700
5.9021000
5.8960000
5.8990500
5.8975200
5.8960000
5.8960000
5.8944700
5.9051500
5.9005700
5.8990500
5.8990500
5.8960000
5.8975200
5.9021000
5.8990500
5.8990500
5.8990500
5.9021000
5.9021000
5.9005700
5.9021000
5.8960000
5.8960000
5.8975200
5.9021000
5.8990500
5.8960000
5.8975200
5.9005700
5.8990500
5.8975200
5.8960000
5.8960000
5.8975200
5.8990500
5.9005700
5.9005700
5.9036300
5.9021000
5.8975200
5.8990500
5.9005700
5.8944700
5.8990500
5.8990500
5.8990500
5.9005700
5.8990500
5.8975200
5.8960000
5.8990500
5.8990500
5.8975200
5.8929400
5.8975200
5.8960000
5.8960000
5.8990500
5.8990500
5.8960000
5.8960000
5.9005700
5.9021000
5.9021000
5.8990500
5.8990500
5.9021000
5.8990500
5.9036300
5.8975200
5.8990500
5.8944700
5.8975200
5.8975200
5.9005700
5.8944700
5.8944700
5.8960000
5.8960000
5.8960000
5.8975200
5.8975200
5.8960000
5.8929400
5.8990500
5.9021000
5.8944700
5.8975200
5.8960000
5.8960000
5.9005700
5.9005700
5.8960000
5.8929400
5.8929400
5.8929400
5.8929400
5.8929400
5.8944700
5.8990500
5.9005700
5.9036300
5.8990500
5.8944700
5.8975200
5.8960000
5.8975200
5.8975200
5.9021000
5.8975200
5.8944700
5.8990500
5.8944700
5.9005700
5.8975200
5.8990500
5.8960000
5.8975200
5.8944700
5.8960000
5.8975200
5.8975200
5.8990500
5.8960000
5.8975200
5.8914200
5.8960000
5.8975200
5.9005700
5.8960000
5.8929400
5.8960000
5.8929400
5.8868400
5.8944700
5.8960000
5.8929400
5.8929400
5.8883700
5.8914200
5.8898900
5.8898900
5.8883700
5.8883700
5.8914200
5.8868400
5.8914200
5.8929400
5.8898900
5.8898900
5.8914200
5.8898900
5.8868400
5.8883700
5.8883700
5.8883700
5.8883700
5.8914200
5.8929400
5.8883700
5.8883700
5.8898900
5.8914200
5.8929400
5.8914200
5.8929400
5.8898900
5.8944700
5.8914200
5.8914200
5.8914200
5.8898900
5.8898900
5.8868400
5.8914200
5.8868400
5.8868400
5.8883700
5.8837900
5.8898900
5.8914200
5.8898900
5.8853100
5.8868400
5.8883700
5.8929400
5.8914200
5.8914200
5.8883700
5.8883700
5.8914200
5.8883700
5.8868400
5.8868400
5.8868400
5.8898900
5.8914200
5.8914200
5.8914200
5.8898900
5.8883700
5.8914200
5.8914200
5.8883700
5.8868400
5.8883700
5.8883700
5.8883700
5.8944700
5.8898900
5.8883700
5.8883700
5.8898900
5.8914200
5.8868400
5.8883700
5.8868400
5.8944700
5.8898900
5.8868400
5.8853100
5.8837900
5.8883700
5.8853100
5.8837900
5.8853100
5.8837900
5.8883700
5.8944700
5.8898900
5.8944700
5.8914200
5.8914200
5.8883700
5.8914200
5.8914200
5.8914200
5.8929400
5.8898900
5.8929400
5.8914200
5.8883700
5.8898900
5.8898900
5.8914200
5.8960000
5.8960000
5.8944700
5.8944700
5.8914200
5.8944700
5.8898900
5.8929400
5.8898900
5.8914200
5.8914200
5.8914200
5.8914200
5.8929400
5.8898900
5.8868400
5.8914200
5.8898900
5.8914200
5.8868400
5.8898900
5.8898900
5.8914200
5.8944700
5.8914200
5.8898900
5.8929400
5.8929400
5.8898900
5.8898900
5.8883700
5.8898900
5.8914200
5.8914200
5.8883700
5.8898900
5.8883700
5.8868400
5.8837900
5.8868400
5.8868400
5.8883700
5.8883700
5.8929400
5.8898900
5.8898900
5.8898900
5.8868400
5.8853100
5.8883700
5.8914200
5.8929400
5.8898900
5.8898900
5.8898900
5.8944700
5.8929400
5.8898900
5.8898900
5.8883700
5.8883700
5.8853100
5.8853100
5.8868400
5.8776900
5.8776900
5.8914200
5.8898900
5.8914200
5.8883700
5.8898900
5.8883700
5.8898900
5.8868400
5.8868400
5.8883700
5.8868400
5.8914200
5.8883700
5.8914200
5.8853100
5.8868400
5.8883700
5.8883700
5.8898900
5.8883700
5.8837900
5.8853100
5.8853100
5.8914200
5.8914200
5.8868400
5.8807400
5.8837900
5.8807400
5.8807400
5.8898900
5.8868400
5.8898900
5.8883700
5.8883700
5.8898900
5.8914200
5.8898900
5.8868400
5.8914200
5.8914200
5.8853100
5.8853100
5.8853100
5.8883700
5.8868400
5.8868400
5.8898900
5.8807400
5.8868400
5.8868400
5.8853100
5.8868400
5.8868400
5.8883700
5.8898900
5.8914200
5.8914200
5.8898900
5.8898900
5.8883700
5.8883700
5.8868400
5.8914200
5.8868400
5.8868400
5.8837900
5.8868400
5.8837900
5.8853100
5.8837900
5.8837900
5.8807400
5.8914200
5.8929400
5.8898900
5.8929400
5.8898900
5.8914200
5.8883700
5.8898900
5.8898900
5.8868400
5.8883700
5.8868400
5.8898900
5.8883700
5.8898900
5.8914200
5.8929400
5.8868400
5.8883700
5.8868400
5.8853100
5.8853100
5.8883700
5.8929400
5.8944700
5.8868400
5.8868400
5.8853100
5.8837900
5.8853100
5.8853100
5.8898900
5.8868400
5.8898900
5.8898900
5.8868400
5.8868400
5.8853100
5.8929400
5.8929400
5.8929400
5.8883700
5.8853100
5.8868400
5.8914200
5.8868400
5.8914200
5.8898900
5.8914200
5.8883700
5.8898900
5.8898900
5.8853100
5.8868400
5.8868400
5.8883700
5.8898900
5.8883700
5.8868400
5.8853100
5.8898900
5.8868400
5.8898900
5.8853100
5.8853100
5.8883700
5.8883700
5.8914200
5.8898900
5.8868400
5.8868400
5.8853100
5.8853100
5.8853100
5.8898900
5.8853100
5.8837900
5.8898900
5.8883700
5.8898900
5.8898900
5.8853100
5.8837900
5.8837900
5.8868400
5.8898900
5.8898900
5.8929400
5.8883700
5.8914200
5.8914200
5.8883700
5.8898900
5.8868400
5.8929400
5.8914200
5.8898900
5.8898900
5.8883700
5.8853100
5.8898900
5.8898900
5.8883700
5.8898900
5.8883700
5.8914200
5.8883700
5.8898900
5.8868400
5.8883700
5.8868400
5.8807400
5.8898900
5.8853100
5.8868400
5.8837900
5.8868400
5.8868400
5.8837900
5.8807400
5.8807400
5.8837900
5.8868400
5.8883700
5.8883700
5.8868400
5.8898900
5.8914200
5.8883700
5.8898900
5.8868400
5.8883700
5.8868400
5.8929400
5.8898900
5.8898900
5.8898900
5.8883700
5.8898900
5.8898900
5.8898900
5.8914200
5.8898900
5.8868400
5.8914200
5.8883700
5.8883700
5.8837900
5.8853100
5.8853100
5.8914200
5.8898900
5.8837900
5.8883700
5.8868400
5.8868400
5.8868400
5.8898900
5.8883700
5.8853100
5.8883700
5.8898900
5.8883700
5.8898900
5.8883700
5.8868400
5.8883700
5.8898900
5.8868400
5.8837900
5.8853100
5.8868400
5.8853100
5.8898900
5.8914200
5.8807400
5.8807400
5.8868400
5.8807400
5.8853100
5.8807400
5.8853100
5.8837900
5.8868400
5.8929400
5.8929400
5.8898900
5.8868400
5.8883700
5.8883700
5.8853100
5.8837900
5.8853100
5.8807400
5.8807400
5.8792100
5.8853100
5.8792100
5.8837900
5.8868400
5.8914200
5.8898900
5.8837900
5.8868400
5.8868400
5.8868400
5.8868400
5.8898900
5.8853100
5.8853100
5.8883700
5.8868400
5.8853100
5.8776900
5.8837900
5.8807400
5.8944700
5.8929400
5.8883700
5.8868400
5.8868400
5.8883700
5.8837900
5.8868400
5.8868400
5.8853100
5.8792100
5.8883700
5.8853100
5.8868400
5.8837900
5.8898900
5.8929400
5.8944700
5.8929400
5.8883700
5.8898900
5.8914200
5.8898900
5.8883700
5.8914200
5.8883700
5.8914200
5.8898900
5.8914200
5.8914200
5.8883700
5.8929400
5.8929400
5.8883700
5.8868400
5.8883700
5.8868400
5.8807400
5.8853100
5.8868400
5.8837900
5.8914200
5.8975200
5.8944700
5.8929400
5.8960000
5.8898900
5.8883700
5.8898900
5.8914200
5.8914200
5.8883700
5.8883700
5.8837900
5.8853100
5.8929400
5.8914200
5.8914200
5.8960000
5.8914200
5.8898900
5.8898900
5.8883700
5.8898900
5.8898900
5.8883700
5.8883700
5.8853100
5.8898900
5.8868400
5.8853100
5.8898900
5.8898900
5.8898900
5.8929400
5.8898900
5.8929400
5.8898900
5.8914200
5.8944700
5.8944700
5.8929400
5.8914200
5.8898900
5.8914200
5.8914200
5.8868400
5.8898900
5.8853100
5.8883700
5.8868400
5.8853100
5.8807400
5.8837900
5.8898900
5.8898900
5.8883700
5.8807400
5.8944700
5.8990500
5.9005700
5.8944700
5.8914200
5.8914200
5.8883700
5.8883700
5.8898900
5.8914200
5.8944700
5.8914200
5.8853100
5.8914200
5.8883700
5.8883700
5.8837900
5.8853100
5.8853100
5.8883700
5.8914200
5.8898900
5.8898900
5.8898900
5.8929400
5.8883700
5.8883700
5.8868400
5.8914200
5.8898900
5.8929400
5.8929400
5.8898900
5.8868400
5.8898900
5.8868400
5.8883700
5.8898900
5.8868400
5.8868400
5.8914200
5.8898900
5.8883700
5.8898900
5.8898900
5.8914200
5.8898900
5.8868400
5.8914200
5.8868400
5.8868400
5.8868400
5.8929400
5.8898900
5.8898900
5.8853100
5.8868400
5.8898900
5.8898900
5.8914200
5.8929400
5.8868400
5.8883700
5.8914200
5.8898900
5.8944700
5.8898900
5.8944700
5.8929400
5.8898900
5.8898900
5.8868400
5.8853100
5.8853100
5.8883700
5.8868400
5.8929400
5.8960000
5.8929400
5.8960000
5.8975200
5.8960000
5.8960000
5.8944700
5.8929400
5.8898900
5.8929400
5.8929400
5.8898900
5.8914200
5.8944700
5.8944700
5.8914200
5.8929400
5.8898900
5.8883700
5.8914200
5.8914200
5.8944700
5.8883700
5.8944700
5.8898900
5.8929400
5.8914200
5.8914200
5.8776900
5.8807400
5.8868400
5.8868400
5.8914200
5.8929400
5.8914200
5.8914200
5.8975200
5.8975200
5.8960000
5.8883700
5.8898900
5.8929400
5.8960000
5.8960000
5.8914200
5.8960000
5.8944700
5.8990500
5.8883700
5.8914200
5.8898900
5.8914200
5.8929400
5.8944700
5.8960000
5.8975200
5.8960000
5.8944700
5.8929400
5.8944700
5.8990500
5.8898900
5.8944700
5.8960000
5.9005700
5.8960000
5.8914200
5.8883700
5.8929400
5.8929400
5.8898900
5.8914200
5.8898900
5.8929400
5.8944700
5.8944700
5.8960000
5.8944700
5.8898900
5.8914200
5.8883700
5.8868400
5.8883700
5.8914200
5.8898900
5.8914200
5.8944700
5.8944700
5.8914200
5.8883700
5.8898900
5.8883700
5.8898900
5.8914200
5.8868400
5.8883700
5.8898900
5.8944700
5.8914200
5.8929400
5.8883700
5.8914200
5.8898900
5.8944700
5.8929400
5.8914200
5.8898900
5.8914200
5.8929400
5.8898900
5.8914200
5.8868400
5.8898900
5.8883700
5.8929400
5.8898900
5.8868400
5.8853100
5.8868400
5.8868400
5.8883700
5.8883700
5.8837900
5.8914200
5.8898900
5.8929400
5.8898900
5.8868400
5.8837900
5.8883700
5.8898900
5.8883700
5.8929400
5.8883700
5.8853100
5.8883700
5.8898900
5.8853100
5.8868400
5.8807400
5.8837900
5.8837900
5.8807400
5.8853100
5.8883700
5.8853100
5.8837900
5.8868400
5.8868400
5.8898900
5.8853100
5.8853100
5.8853100
5.8853100
5.8837900
5.8837900
5.8837900
5.8807400
5.8837900
5.8898900
5.8868400
5.8868400
5.8807400
5.8807400
5.8898900
5.8868400
5.8883700
5.8914200
5.8868400
5.8868400
5.8883700
5.8883700
5.8837900
5.8853100
5.8883700
5.8853100
5.8853100
5.8807400
5.8792100
5.8792100
5.8868400
5.8868400
5.8868400
5.8868400
5.8868400
5.8914200
5.8929400
5.8898900
5.8898900
5.8868400
5.8883700
5.8853100
5.8868400
5.8883700
5.8898900
5.8898900
5.8914200
5.8944700
5.8898900
5.8868400
5.8853100
5.8807400
5.8837900
5.8868400
5.8853100
5.8868400
5.8868400
5.8868400
5.8883700
5.8914200
5.8898900
5.8853100
5.8868400
5.8868400
5.8853100
5.8868400
5.8837900
5.8853100
5.8807400
5.8837900
5.8868400
5.8868400
5.8837900
5.8837900
5.8792100
5.8807400
5.8792100
5.8837900
5.8807400
5.8792100
5.8883700
5.8868400
5.8868400
5.8868400
5.8807400
5.8837900
5.8868400
5.8853100
5.8853100
5.8776900
5.8853100
5.8837900
5.8837900
5.8853100
5.8837900
5.8837900
5.8853100
5.8883700
5.8868400
5.8837900
5.8746300
5.8807400
5.8883700
5.8929400
5.8883700
5.8837900
5.8883700
5.8837900
5.8807400
5.8883700
5.8883700
5.8868400
5.8868400
5.8837900
5.8853100
5.8853100
5.8853100
5.8837900
5.8807400
5.8837900
5.8837900
5.8853100
5.8776900
5.8837900
5.8883700
5.8868400
5.8868400
5.8792100
5.8792100
5.8792100
5.8868400
5.8792100
5.8868400
5.8853100
5.8868400
5.8868400
5.8853100
5.8853100
5.8853100
5.8837900
5.8853100
5.8837900
5.8837900
5.8837900
5.8807400
5.8807400
5.8853100
5.8883700
5.8837900
5.8853100
5.8792100
5.8853100
5.8868400
5.8898900
5.8883700
5.8853100
5.8853100
5.8837900
5.8837900
5.8868400
5.8853100
5.8837900
5.8837900
5.8837900
5.8837900
5.8868400
5.8807400
5.8837900
5.8837900
5.8853100
5.8837900
5.8853100
5.8807400
5.8837900
5.8792100
5.8883700
5.8868400
5.8807400
5.8792100
5.8807400
5.8792100
5.8776900
5.8837900
5.8868400
5.8837900
5.8868400
5.8853100
5.8837900
5.8868400
5.8807400
5.8853100
5.8883700
5.8868400
5.8883700
5.8853100
5.8853100
5.8837900
5.8883700
5.8792100
5.8776900
5.8776900
5.8868400
5.8898900
5.8944700
5.8914200
5.8914200
5.8883700
5.8868400
5.8868400
5.8898900
5.8883700
5.8868400
5.8868400
5.8898900
5.8898900
5.8898900
5.8898900
5.8883700
5.8853100
5.8868400
5.8837900
5.8868400
5.8807400
5.8868400
5.8837900
5.8868400
5.8853100
5.8837900
5.8792100
5.8807400
5.8837900
5.8776900
5.8837900
5.8898900
5.8868400
5.8837900
5.8868400
5.8792100
5.8807400
5.8761600
5.8776900
5.8807400
5.8807400
5.8868400
5.8837900
5.8761600
5.8746300
5.8807400
5.8776900
5.8853100
5.8792100
5.8792100
5.8883700
5.8960000
5.8914200
5.8883700
5.8868400
5.8837900
5.8853100
5.8853100
5.8853100
5.8807400
5.8837900
5.8807400
5.8792100
5.8837900
5.8807400
5.8837900
5.8776900
5.8792100
5.8807400
5.8868400
5.8776900
5.8776900
5.8792100
5.8853100
5.8868400
5.8837900
5.8837900
5.8807400
5.8837900
5.8853100
5.8868400
5.8883700
5.8868400
5.8853100
5.8837900
5.8837900
5.8868400
5.8853100
5.8883700
5.8853100
5.8837900
5.8853100
5.8837900
5.8853100
5.8807400
5.8868400
5.8807400
5.8853100
5.8853100
5.8837900
5.8792100
5.8807400
5.8761600
5.8807400
5.8853100
5.8776900
5.8792100
5.8792100
5.8853100
5.8807400
5.8807400
5.8807400
5.8837900
5.8807400
5.8807400
5.8837900
5.8837900
5.8807400
5.8792100
5.8807400
5.8776900
5.8807400
5.8837900
5.8853100
5.8807400
5.8776900
5.8807400
5.8792100
5.8776900
5.8761600
5.8792100
5.8776900
5.8792100
5.8746300
5.8761600
5.8746300
5.8807400
5.8731100
5.8746300
5.8746300
5.8746300
5.8807400
5.8761600
5.8837900
5.8868400
5.8883700
5.8837900
5.8868400
5.8898900
5.8868400
5.8883700
5.8883700
5.8853100
5.8883700
5.8868400
5.8807400
5.8807400
5.8853100
5.8807400
5.8776900
5.8776900
5.8807400
5.8807400
5.8807400
5.8807400
5.8807400
5.8792100
5.8792100
5.8776900
5.8792100
5.8761600
5.8776900
5.8776900
5.8792100
5.8837900
5.8807400
5.8776900
5.8761600
5.8761600
5.8761600
5.8792100
5.8761600
5.8776900
5.8776900
5.8807400
5.8807400
5.8792100
5.8746300
5.8837900
5.8883700
5.8853100
5.8868400
5.8837900
5.8853100
5.8807400
5.8807400
5.8837900
5.8792100
5.8792100
5.8807400
5.8807400
5.8776900
5.8746300
5.8746300
5.8746300
5.8792100
5.8776900
5.8807400
5.8807400
5.8792100
5.8792100
5.8776900
5.8746300
5.8731100
5.8776900
5.8792100
5.8837900
5.8837900
5.8807400
5.8837900
5.8761600
5.8792100
5.8746300
5.8807400
5.8792100
5.8807400
5.8776900
5.8746300
5.8761600
5.8731100
5.8731100
5.8700600
5.8746300
5.8761600
5.8792100
5.8807400
5.8792100
5.8776900
5.8761600
5.8792100
5.8807400
5.8807400
5.8776900
5.8761600
5.8776900
5.8807400
5.8776900
5.8776900
5.8761600
5.8746300
5.8761600
5.8746300
5.8761600
5.8776900
5.8837900
5.8776900
5.8792100
5.8776900
5.8807400
5.8792100
5.8761600
5.8761600
5.8807400
5.8792100
5.8792100
5.8792100
5.8761600
5.8792100
5.8746300
5.8776900
5.8685300
5.8776900
5.8792100
5.8792100
5.8761600
5.8746300
5.8731100
5.8731100
5.8731100
5.8731100
5.8776900
5.8761600
5.8761600
5.8761600
5.8746300
5.8776900
5.8746300
5.8715800
5.8746300
5.8761600
5.8731100
5.8761600
5.8746300
5.8731100
5.8746300
5.8746300
5.8761600
5.8746300
5.8761600
5.8792100
5.8807400
5.8807400
5.8807400
5.8792100
5.8776900
5.8776900
5.8853100
5.8776900
5.8776900
5.8746300
5.8746300
5.8807400
5.8837900
5.8792100
5.8731100
5.8746300
5.8746300
5.8731100
5.8715800
5.8761600
5.8731100
5.8731100
5.8776900
5.8792100
5.8776900
5.8761600
5.8792100
5.8731100
5.8731100
5.8715800
5.8731100
5.8731100
5.8731100
5.8715800
5.8761600
5.8837900
5.8853100
5.8792100
5.8853100
5.8837900
5.8807400
5.8853100
5.8868400
5.8868400
5.8853100
5.8853100
5.8837900
5.8792100
5.8807400
5.8837900
5.8837900
5.8853100
5.8853100
5.8883700
5.8807400
5.8807400
5.8776900
5.8776900
5.8792100
5.8761600
5.8776900
5.8792100
5.8776900
5.8761600
5.8761600
5.8731100
5.8700600
5.8761600
5.8761600
5.8761600
5.8700600
5.8776900
5.8746300
5.8776900
5.8746300
5.8685300
5.8685300
5.8670000
5.8670000
5.8685300
5.8685300
5.8670000
5.8685300
5.8670000
5.8685300
5.8731100
5.8715800
5.8700600
5.8731100
5.8731100
5.8746300
5.8746300
5.8715800
5.8746300
5.8746300
5.8837900
5.8837900
5.8776900
5.8731100
5.8776900
5.8807400
5.8776900
5.8761600
5.8792100
5.8761600
5.8731100
5.8746300
5.8746300
5.8761600
5.8731100
5.8731100
5.8746300
5.8715800
5.8746300
5.8746300
5.8746300
5.8761600
5.8746300
5.8746300
5.8853100
5.8776900
5.8792100
5.8776900
5.8837900
5.8837900
5.8776900
5.8746300
5.8746300
5.8700600
5.8731100
5.8761600
5.8746300
5.8731100
5.8746300
5.8761600
5.8700600
5.8746300
5.8700600
5.8700600
5.8715800
5.8731100
5.8776900
5.8731100
5.8761600
5.8731100
5.8746300
5.8746300
5.8746300
5.8700600
5.8715800
5.8731100
5.8746300
5.8746300
5.8792100
5.8715800
5.8731100
5.8731100
5.8715800
5.8731100
5.8670000
5.8746300
5.8776900
5.8776900
5.8761600
5.8746300
5.8776900
5.8715800
5.8776900
5.8731100
5.8746300
5.8731100
5.8746300
5.8731100
5.8807400
5.8792100
5.8731100
5.8746300
5.8731100
5.8731100
5.8746300
5.8746300
5.8731100
5.8700600
5.8746300
5.8761600
5.8776900
5.8761600
5.8761600
5.8776900
5.8761600
5.8761600
5.8761600
5.8746300
5.8761600
5.8792100
5.8792100
5.8746300
5.8746300
5.8715800
5.8746300
5.8746300
5.8715800
5.8731100
5.8746300
5.8731100
5.8700600
5.8715800
5.8700600
5.8776900
5.8700600
5.8715800
5.8715800
5.8746300
5.8746300
5.8715800
5.8731100
5.8746300
5.8746300
5.8731100
5.8731100
5.8715800
5.8731100
5.8761600
5.8746300
5.8731100
5.8731100
5.8731100
5.8700600
5.8715800
5.8715800
5.8761600
5.8731100
5.8715800
5.8731100
5.8761600
5.8776900
5.8715800
5.8700600
5.8700600
5.8731100
5.8731100
5.8715800
5.8715800
5.8715800
5.8715800
5.8731100
5.8731100
5.8700600
5.8700600
5.8685300
5.8715800
5.8731100
5.8715800
5.8700600
5.8700600
5.8700600
5.8700600
5.8685300
5.8715800
5.8715800
5.8700600
5.8715800
5.8731100
5.8761600
5.8715800
5.8746300
5.8715800
5.8715800
5.8731100
5.8731100
5.8700600
5.8715800
5.8700600
5.8731100
5.8731100
5.8731100
5.8731100
5.8715800
5.8731100
5.8685300
5.8746300
5.8685300
5.8685300
5.8700600
5.8670000
5.8670000
5.8700600
5.8654800
5.8685300
5.8700600
5.8685300
5.8685300
5.8700600
5.8700600
5.8685300
5.8715800
5.8700600
5.8715800
5.8654800
5.8654800
5.8670000
5.8654800
5.8700600
5.8731100
5.8670000
5.8670000
5.8700600
5.8685300
5.8715800
5.8731100
5.8700600
5.8685300
5.8624300
5.8685300
5.8715800
5.8715800
5.8715800
5.8761600
5.8715800
5.8761600
5.8715800
5.8746300
5.8715800
5.8731100
5.8715800
5.8685300
5.8670000
5.8654800
5.8654800
5.8685300
5.8715800
5.8700600
5.8685300
5.8685300
5.8731100
5.8700600
5.8685300
5.8685300
5.8670000
5.8654800
5.8654800
5.8685300
5.8654800
5.8670000
5.8685300
5.8715800
5.8700600
5.8746300
5.8700600
5.8700600
5.8715800
5.8700600
5.8700600
5.8746300
5.8670000
5.8685300
5.8700600
5.8685300
5.8700600
5.8670000
5.8654800
5.8654800
5.8654800
5.8700600
5.8715800
5.8746300
5.8715800
5.8731100
5.8700600
5.8731100
5.8685300
5.8700600
5.8685300
5.8731100
5.8654800
5.8685300
5.8654800
5.8654800
5.8670000
5.8685300
5.8700600
5.8654800
5.8685300
5.8670000
5.8715800
5.8685300
5.8670000
5.8639500
5.8670000
5.8670000
5.8700600
5.8700600
5.8685300
5.8670000
5.8670000
5.8700600
5.8700600
5.8700600
5.8685300
5.8654800
5.8685300
5.8654800
5.8654800
5.8670000
5.8700600
5.8776900
5.8776900
5.8731100
5.8685300
5.8654800
5.8685300
5.8700600
5.8715800
5.8746300
5.8731100
5.8715800
5.8685300
5.8700600
5.8700600
5.8746300
5.8670000
5.8654800
5.8624300
5.8670000
5.8639500
5.8654800
5.8639500
5.8624300
5.8639500
5.8654800
5.8670000
5.8685300
5.8670000
5.8700600
5.8685300
5.8715800
5.8731100
5.8700600
5.8715800
5.8715800
5.8685300
5.8700600
5.8700600
5.8700600
5.8700600
5.8685300
5.8685300
5.8670000
5.8639500
5.8685300
5.8685300
5.8700600
5.8700600
5.8685300
5.8685300
5.8654800
5.8685300
5.8670000
5.8670000
5.8639500
5.8670000
5.8685300
5.8700600
5.8700600
5.8700600
5.8700600
5.8624300
5.8685300
5.8654800
5.8700600
5.8654800
5.8685300
5.8670000
5.8715800
5.8670000
5.8670000
5.8685300
5.8685300
5.8639500
5.8670000
5.8685300
5.8639500
5.8654800
5.8700600
5.8700600
5.8654800
5.8654800
5.8609000
5.8624300
5.8609000
5.8639500
5.8639500
5.8624300
5.8654800
5.8700600
5.8715800
5.8685300
5.8685300
5.8639500
5.8670000
5.8700600
5.8670000
5.8685300
5.8670000
5.8639500
5.8624300
5.8670000
5.8639500
5.8670000
5.8654800
5.8685300
5.8670000
5.8670000
5.8685300
5.8685300
5.8670000
5.8639500
5.8670000
5.8654800
5.8670000
5.8654800
5.8654800
5.8715800
5.8731100
5.8700600
5.8670000
5.8654800
5.8670000
5.8654800
5.8685300
5.8700600
5.8624300
5.8624300
5.8624300
5.8654800
5.8624300
5.8624300
5.8624300
5.8685300
5.8685300
5.8700600
5.8685300
5.8654800
5.8670000
5.8670000
5.8670000
5.8624300
5.8639500
5.8639500
5.8654800
5.8685300
5.8654800
5.8700600
5.8685300
5.8670000
5.8654800
5.8654800
5.8670000
5.8654800
5.8609000
5.8624300
5.8670000
5.8654800
5.8685300
5.8685300
5.8670000
5.8670000
5.8685300
5.8624300
5.8654800
5.8624300
5.8639500
5.8609000
5.8670000
5.8639500
5.8624300
5.8578500
5.8578500
5.8593800
5.8578500
5.8670000
5.8670000
5.8654800
5.8670000
5.8700600
5.8670000
5.8685300
5.8624300
5.8654800
5.8639500
5.8670000
5.8654800
5.8654800
5.8654800
5.8624300
5.8670000
5.8609000
5.8639500
5.8578500
5.8578500
5.8593800
5.8624300
5.8639500
5.8639500
5.8624300
5.8624300
5.8624300
5.8609000
5.8654800
5.8609000
5.8654800
5.8624300
5.8639500
5.8639500
5.8639500
5.8624300
5.8639500
5.8670000
5.8654800
5.8654800
5.8639500
5.8670000
5.8624300
5.8654800
5.8624300
5.8609000
5.8593800
5.8578500
5.8609000
5.8578500
5.8609000
5.8593800
5.8639500
5.8654800
5.8654800
5.8654800
5.8654800
5.8639500
5.8639500
5.8609000
5.8609000
5.8624300
5.8593800
5.8609000
5.8639500
5.8624300
5.8609000
5.8609000
5.8593800
5.8609000
5.8654800
5.8624300
5.8670000
5.8624300
5.8609000
5.8578500
5.8624300
5.8609000
5.8609000
5.8563200
5.8609000
5.8609000
5.8609000
5.8624300
5.8609000
5.8593800
5.8609000
5.8593800
5.8563200
5.8548000
5.8563200
5.8563200
5.8563200
5.8578500
5.8578500
5.8548000
5.8532700
5.8502200
5.8532700
5.8578500
5.8609000
5.8563200
5.8578500
5.8578500
5.8639500
5.8563200
5.8609000
5.8593800
5.8548000
5.8578500
5.8593800
5.8624300
5.8593800
5.8609000
5.8563200
5.8609000
5.8624300
5.8654800
5.8593800
5.8563200
5.8563200
5.8563200
5.8578500
5.8593800
5.8593800
5.8593800
5.8578500
5.8532700
5.8563200
5.8532700
5.8548000
5.8548000
5.8578500
5.8563200
5.8578500
5.8548000
5.8532700
5.8532700
5.8502200
5.8563200
5.8486900
5.8532700
5.8532700
5.8563200
5.8502200
5.8502200
5.8548000
5.8578500
5.8563200
5.8563200
5.8548000
5.8593800
5.8624300
5.8624300
5.8670000
5.8639500
5.8639500
5.8593800
5.8609000
5.8563200
5.8609000
5.8609000
5.8563200
5.8593800
5.8578500
5.8593800
5.8609000
5.8609000
5.8593800
5.8578500
5.8578500
5.8578500
5.8624300
5.8563200
5.8578500
5.8563200
5.8609000
5.8548000
5.8532700
5.8471700
5.8563200
5.8593800
5.8563200
5.8578500
5.8593800
5.8548000
5.8532700
5.8578500
5.8578500
5.8578500
5.8532700
5.8563200
5.8563200
5.8563200
5.8578500
5.8532700
5.8548000
5.8563200
5.8578500
5.8563200
5.8609000
5.8578500
5.8578500
5.8578500
5.8639500
5.8593800
5.8593800
5.8578500
5.8532700
5.8548000
5.8593800
5.8593800
5.8532700
5.8609000
5.8548000
5.8532700
5.8502200
5.8548000
5.8502200
5.8532700
5.8593800
5.8532700
5.8563200
5.8532700
5.8532700
5.8502200
5.8548000
5.8502200
5.8532700
5.8502200
5.8563200
5.8548000
5.8532700
5.8593800
5.8578500
5.8548000
5.8532700
5.8532700
5.8563200
5.8548000
5.8532700
5.8563200
5.8532700
5.8563200
5.8593800
5.8548000
5.8548000
5.8532700
5.8532700
5.8532700
5.8548000
5.8593800
5.8548000
5.8563200
5.8593800
5.8578500
5.8593800
5.8578500
5.8548000
5.8548000
5.8548000
5.8548000
5.8502200
5.8548000
5.8532700
5.8578500
5.8548000
5.8563200
5.8502200
5.8502200
5.8548000
5.8548000
5.8532700
5.8548000
5.8532700
5.8486900
5.8486900
5.8502200
5.8593800
5.8563200
5.8593800
5.8578500
5.8578500
5.8593800
5.8593800
5.8563200
5.8548000
5.8609000
5.8563200
5.8593800
5.8578500
5.8548000
5.8563200
5.8578500
5.8593800
5.8593800
5.8563200
5.8548000
5.8578500
5.8563200
5.8548000
5.8578500
5.8578500
5.8548000
5.8578500
5.8548000
5.8578500
5.8563200
5.8486900
5.8471700
5.8502200
5.8502200
5.8456400
5.8456400
5.8456400
5.8563200
5.8578500
5.8563200
5.8502200
5.8486900
5.8548000
5.8578500
5.8593800
5.8593800
5.8548000
5.8548000
5.8593800
5.8578500
5.8563200
5.8532700
5.8502200
5.8502200
5.8532700
5.8548000
5.8563200
5.8563200
5.8532700
5.8563200
5.8548000
5.8593800
5.8578500
5.8548000
5.8532700
5.8578500
5.8563200
5.8548000
5.8548000
5.8532700
5.8532700
5.8548000
5.8532700
5.8502200
5.8502200
5.8486900
5.8563200
5.8502200
5.8532700
5.8502200
5.8502200
5.8471700
5.8486900
5.8471700
5.8441200
5.8456400
5.8410600
5.8548000
5.8624300
5.8624300
5.8639500
5.8624300
5.8624300
5.8578500
5.8578500
5.8563200
5.8563200
5.8486900
5.8548000
5.8532700
5.8563200
5.8486900
5.8563200
5.8532700
5.8548000
5.8593800
5.8609000
5.8502200
5.8532700
5.8548000
5.8563200
5.8563200
5.8548000
5.8548000
5.8532700
5.8532700
5.8548000
5.8548000
5.8548000
5.8532700
5.8532700
5.8532700
5.8532700
5.8532700
5.8563200
5.8578500
5.8563200
5.8548000
5.8563200
5.8563200
5.8548000
5.8548000
5.8578500
5.8578500
5.8532700
5.8563200
5.8548000
5.8548000
5.8502200
5.8532700
5.8502200
5.8486900
5.8502200
5.8532700
5.8548000
5.8532700
5.8502200
5.8532700
5.8548000
5.8548000
5.8563200
5.8502200
5.8548000
5.8532700
5.8532700
5.8532700
5.8548000
5.8532700
5.8532700
5.8532700
5.8486900
5.8548000
5.8486900
5.8502200
5.8441200
5.8502200
5.8532700
5.8578500
5.8563200
5.8563200
5.8563200
5.8563200
5.8578500
5.8502200
5.8532700
5.8532700
5.8578500
5.8563200
5.8532700
5.8532700
5.8471700
5.8502200
5.8532700
5.8563200
5.8532700
5.8532700
5.8486900
5.8502200
5.8532700
5.8486900
5.8456400
5.8471700
5.8532700
5.8563200
5.8532700
5.8471700
5.8532700
5.8471700
5.8502200
5.8502200
5.8502200
5.8456400
5.8486900
5.8471700
5.8471700
5.8532700
5.8532700
5.8441200
5.8471700
5.8532700
5.8441200
5.8486900
5.8471700
5.8486900
5.8471700
5.8578500
5.8548000
5.8486900
5.8532700
5.8502200
5.8502200
5.8471700
5.8532700
5.8471700
5.8486900
5.8502200
5.8563200
5.8548000
5.8563200
5.8502200
5.8486900
5.8502200
5.8548000
5.8548000
5.8532700
5.8502200
5.8532700
5.8532700
5.8548000
5.8548000
5.8532700
5.8532700
5.8532700
5.8532700
5.8532700
5.8502200
5.8486900
5.8486900
5.8548000
5.8548000
5.8532700
5.8502200
5.8502200
5.8502200
5.8486900
5.8563200
5.8563200
5.8532700
5.8548000
5.8532700
5.8486900
5.8532700
5.8532700
5.8502200
5.8486900
5.8532700
5.8486900
5.8486900
5.8486900
5.8502200
5.8532700
5.8486900
5.8548000
5.8502200
5.8441200
5.8456400
5.8441200
5.8425900
5.8456400
5.8456400
5.8471700
5.8441200
5.8486900
5.8563200
5.8502200
5.8471700
5.8456400
5.8456400
5.8456400
5.8471700
5.8410600
5.8456400
5.8456400
5.8471700
5.8532700
5.8471700
5.8563200
5.8532700
5.8548000
5.8578500
5.8532700
5.8486900
5.8486900
5.8502200
5.8502200
5.8502200
5.8532700
5.8486900
5.8502200
5.8548000
5.8502200
5.8486900
5.8456400
5.8471700
5.8456400
5.8502200
5.8456400
5.8456400
5.8441200
5.8441200
5.8471700
5.8486900
5.8502200
5.8532700
5.8486900
5.8486900
5.8548000
5.8486900
5.8486900
5.8471700
5.8441200
5.8441200
5.8471700
5.8471700
5.8456400
5.8471700
5.8441200
5.8441200
5.8456400
5.8502200
5.8471700
5.8456400
5.8456400
5.8471700
5.8532700
5.8456400
5.8456400
5.8441200
5.8486900
5.8441200
5.8456400
5.8441200
5.8410600
5.8456400
5.8471700
5.8502200
5.8502200
5.8471700
5.8471700
5.8502200
5.8471700
5.8548000
5.8471700
5.8471700
5.8486900
5.8471700
5.8532700
5.8471700
5.8456400
5.8425900
5.8471700
5.8532700
5.8532700
5.8502200
5.8471700
5.8486900
5.8502200
5.8532700
5.8471700
5.8441200
5.8456400
5.8441200
5.8456400
5.8502200
5.8456400
5.8486900
5.8456400
5.8456400
5.8456400
5.8456400
5.8425900
5.8425900
5.8380100
5.8425900
5.8502200
5.8548000
5.8548000
5.8502200
5.8532700
5.8532700
5.8486900
5.8471700
5.8502200
5.8548000
5.8456400
5.8502200
5.8548000
5.8471700
5.8471700
5.8471700
5.8471700
5.8486900
5.8441200
5.8456400
5.8425900
5.8456400
5.8471700
5.8441200
5.8471700
5.8456400
5.8502200
5.8486900
5.8486900
5.8471700
5.8471700
5.8471700
5.8486900
5.8471700
5.8471700
5.8456400
5.8441200
5.8441200
5.8471700
5.8456400
5.8425900
5.8441200
5.8441200
5.8456400
5.8471700
5.8471700
5.8471700
5.8471700
5.8456400
5.8471700
5.8486900
5.8441200
5.8456400
5.8456400
5.8456400
5.8456400
5.8441200
5.8395400
5.8425900
5.8410600
5.8410600
5.8395400
5.8410600
5.8410600
5.8471700
5.8502200
5.8471700
5.8456400
5.8425900
5.8456400
5.8410600
5.8471700
5.8502200
5.8471700
5.8456400
5.8456400
5.8486900
5.8425900
5.8441200
5.8441200
5.8441200
5.8425900
5.8425900
5.8456400
5.8441200
5.8456400
5.8441200
5.8364900
5.8425900
5.8410600
5.8395400
5.8380100
5.8410600
5.8425900
5.8425900
5.8410600
5.8410600
5.8410600
5.8410600
5.8425900
5.8425900
5.8380100
5.8410600
5.8441200
5.8486900
5.8456400
5.8441200
5.8425900
5.8410600
5.8441200
5.8441200
5.8441200
5.8441200
5.8441200
5.8410600
5.8456400
5.8425900
5.8425900
5.8410600
5.8410600
5.8441200
5.8410600
5.8380100
5.8380100
5.8410600
5.8380100
5.8425900
5.8425900
5.8471700
5.8410600
5.8425900
5.8456400
5.8502200
5.8471700
5.8486900
5.8456400
5.8441200
5.8410600
5.8425900
5.8425900
5.8410600
5.8441200
5.8425900
5.8471700
5.8425900
5.8441200
5.8456400
5.8441200
5.8410600
5.8441200
5.8441200
5.8395400
5.8441200
5.8410600
5.8425900
5.8441200
5.8425900
5.8410600
5.8395400
5.8395400
5.8364900
5.8441200
5.8471700
5.8502200
5.8486900
5.8471700
5.8441200
5.8425900
5.8410600
5.8395400
5.8380100
5.8441200
5.8456400
5.8410600
5.8395400
5.8395400
5.8456400
5.8425900
5.8441200
5.8395400
5.8410600
5.8410600
5.8441200
5.8441200
5.8425900
5.8425900
5.8395400
5.8441200
5.8395400
5.8425900
5.8395400
5.8410600
5.8410600
5.8425900
5.8410600
5.8425900
5.8425900
5.8410600
5.8425900
5.8410600
5.8441200
5.8380100
5.8380100
5.8380100
5.8380100
5.8395400
5.8364900
5.8319100
5.8349600
5.8364900
5.8334400
5.8456400
5.8486900
5.8441200
5.8395400
5.8380100
5.8380100
5.8410600
5.8364900
5.8395400
5.8410600
5.8395400
5.8410600
5.8349600
5.8349600
5.8425900
5.8456400
5.8395400
5.8364900
5.8349600
5.8395400
5.8456400
5.8471700
5.8425900
5.8441200
5.8410600
5.8364900
5.8319100
5.8319100
5.8273300
5.8273300
5.8319100
5.8319100
5.8319100
5.8471700
5.8548000
5.8486900
5.8395400
5.8425900
5.8410600
5.8441200
5.8349600
5.8380100
5.8380100
5.8532700
5.8456400
5.8364900
5.8349600
5.8349600
5.8349600
5.8319100
5.8364900
5.8410600
5.8532700
5.8486900
5.8441200
5.8456400
5.8425900
5.8364900
5.8364900
5.8395400
5.8395400
5.8395400
5.8364900
5.8410600
5.8364900
5.8441200
5.8410600
5.8410600
5.8380100
5.8380100
5.8410600
5.8441200
5.8425900
5.8425900
5.8425900
5.8395400
5.8364900
5.8410600
5.8380100
5.8395400
5.8410600
5.8410600
5.8410600
5.8410600
5.8425900
5.8410600
5.8380100
5.8425900
5.8410600
5.8425900
5.8349600
5.8410600
5.8395400
5.8425900
5.8441200
5.8380100
5.8364900
5.8395400
5.8410600
5.8395400
5.8410600
5.8410600
5.8380100
5.8349600
5.8395400
5.8364900
5.8364900
5.8319100
5.8364900
5.8380100
5.8395400
5.8395400
5.8364900
5.8380100
5.8349600
5.8410600
5.8334400
5.8349600
5.8319100
5.8303800
5.8364900
5.8349600
5.8380100
5.8349600
5.8380100
5.8364900
5.8395400
5.8364900
5.8380100
5.8349600
5.8349600
5.8334400
5.8334400
5.8334400
5.8380100
5.8334400
5.8364900
5.8364900
5.8334400
5.8273300
5.8258100
5.8258100
5.8303800
5.8303800
5.8288600
5.8410600
5.8410600
5.8395400
5.8349600
5.8349600
5.8380100
5.8395400
5.8364900
5.8425900
5.8395400
5.8349600
5.8395400
5.8380100
5.8334400
5.8334400
5.8395400
5.8456400
5.8410600
5.8395400
5.8380100
5.8441200
5.8395400
5.8364900
5.8334400
5.8349600
5.8364900
5.8380100
5.8380100
5.8380100
5.8395400
5.8349600
5.8364900
5.8364900
5.8380100
5.8380100
5.8334400
5.8364900
5.8395400
5.8380100
5.8364900
5.8380100
5.8395400
5.8410600
5.8395400
5.8380100
5.8319100
5.8349600
5.8349600
5.8410600
5.8410600
5.8349600
5.8349600
5.8334400
5.8349600
5.8349600
5.8380100
5.8334400
5.8334400
5.8303800
5.8319100
5.8349600
5.8364900
5.8334400
5.8349600
5.8349600
5.8364900
5.8380100
5.8349600
5.8364900
5.8349600
5.8364900
5.8303800
5.8319100
5.8288600
5.8303800
5.8303800
5.8288600
5.8319100
5.8364900
5.8425900
5.8410600
5.8380100
5.8334400
5.8334400
5.8319100
5.8349600
5.8349600
5.8288600
5.8258100
5.8288600
5.8334400
5.8334400
5.8334400
5.8288600
5.8410600
5.8364900
5.8395400
5.8425900
5.8441200
5.8395400
5.8380100
5.8334400
5.8349600
5.8303800
5.8319100
5.8364900
5.8334400
5.8303800
5.8319100
5.8364900
5.8349600
5.8380100
5.8334400
5.8319100
5.8334400
5.8334400
5.8349600
5.8334400
5.8334400
5.8319100
5.8334400
5.8273300
5.8303800
5.8242800
5.8288600
5.8303800
5.8334400
5.8319100
5.8303800
5.8303800
5.8319100
5.8349600
5.8303800
5.8303800
5.8258100
5.8334400
5.8319100
5.8334400
5.8334400
5.8395400
5.8334400
5.8319100
5.8349600
5.8288600
5.8334400
5.8288600
5.8288600
5.8303800
5.8349600
5.8349600
5.8319100
5.8303800
5.8319100
5.8303800
5.8258100
5.8288600
5.8227500
5.8242800
5.8227500
5.8273300
5.8242800
5.8273300
5.8288600
5.8288600
5.8349600
5.8410600
5.8380100
5.8349600
5.8334400
5.8334400
5.8380100
5.8334400
5.8319100
5.8334400
5.8303800
5.8273300
5.8288600
5.8288600
5.8319100
5.8303800
5.8273300
5.8288600
5.8288600
5.8273300
5.8227500
5.8258100
5.8258100
5.8288600
5.8303800
5.8273300
5.8258100
5.8258100
5.8364900
5.8349600
5.8364900
5.8288600
5.8288600
5.8288600
5.8288600
5.8288600
5.8288600
5.8258100
5.8273300
5.8273300
5.8288600
5.8319100
5.8303800
5.8319100
5.8288600
5.8319100
5.8303800
5.8288600
5.8197000
5.8288600
5.8349600
5.8303800
5.8319100
5.8288600
5.8242800
5.8258100
5.8258100
5.8242800
5.8242800
5.8288600
5.8303800
5.8273300
5.8273300
5.8288600
5.8303800
5.8303800
5.8319100
5.8319100
5.8334400
5.8334400
5.8303800
5.8319100
5.8319100
5.8334400
5.8334400
5.8273300
5.8303800
5.8288600
5.8288600
5.8288600
5.8273300
5.8258100
5.8273300
5.8303800
5.8349600
5.8303800
5.8303800
5.8273300
5.8273300
5.8258100
5.8288600
5.8319100
5.8258100
5.8258100
5.8303800
5.8334400
5.8273300
5.8273300
5.8242800
5.8242800
5.8303800
5.8288600
5.8319100
5.8319100
5.8319100
5.8319100
5.8319100
5.8319100
5.8303800
5.8288600
5.8288600
5.8303800
5.8288600
5.8303800
5.8334400
5.8288600
5.8273300
5.8273300
5.8273300
5.8334400
5.8288600
5.8288600
5.8364900
5.8303800
5.8303800
5.8258100
5.8288600
5.8258100
5.8288600
5.8258100
5.8242800
5.8258100
5.8197000
5.8227500
5.8303800
5.8319100
5.8227500
5.8242800
5.8166500
5.8258100
5.8303800
5.8319100
5.8273300
5.8258100
5.8273300
5.8319100
5.8319100
5.8303800
5.8258100
5.8319100
5.8288600
5.8303800
5.8303800
5.8273300
5.8303800
5.8273300
5.8288600
5.8288600
5.8273300
5.8273300
5.8258100
5.8273300
5.8319100
5.8319100
5.8364900
5.8303800
5.8258100
5.8319100
5.8303800
5.8319100
5.8258100
5.8288600
5.8288600
5.8334400
5.8349600
5.8334400
5.8349600
5.8319100
5.8303800
5.8273300
5.8303800
5.8288600
5.8334400
5.8334400
5.8364900
5.8334400
5.8319100
5.8319100
5.8288600
5.8273300
5.8273300
5.8288600
5.8288600
5.8303800
5.8319100
5.8380100
5.8364900
5.8349600
5.8288600
5.8319100
5.8380100
5.8364900
5.8380100
5.8349600
5.8364900
5.8319100
5.8334400
5.8319100
5.8303800
5.8303800
5.8273300
5.8349600
5.8334400
5.8334400
5.8334400
5.8334400
5.8288600
5.8319100
5.8319100
5.8319100
5.8288600
5.8319100
5.8303800
5.8288600
5.8288600
5.8258100
5.8288600
5.8242800
5.8288600
5.8258100
5.8319100
5.8349600
5.8288600
5.8303800
5.8334400
5.8334400
5.8334400
5.8334400
5.8303800
5.8334400
5.8319100
5.8319100
5.8319100
5.8334400
5.8349600
5.8334400
5.8288600
5.8334400
5.8242800
5.8273300
5.8273300
5.8303800
5.8319100
5.8288600
5.8303800
5.8273300
5.8349600
5.8303800
5.8319100
5.8303800
5.8303800
5.8288600
5.8303800
5.8319100
5.8319100
5.8273300
5.8227500
5.8319100
5.8364900
5.8349600
5.8288600
5.8303800
5.8303800
5.8303800
5.8303800
5.8288600
5.8258100
5.8258100
5.8303800
5.8258100
5.8273300
5.8258100
5.8288600
5.8258100
5.8303800
5.8303800
5.8288600
5.8273300
5.8273300
5.8288600
5.8242800
5.8242800
5.8273300
5.8181800
5.8197000
5.8242800
5.8181800
5.8181800
5.8181800
5.8258100
5.8319100
5.8334400
5.8273300
5.8227500
5.8242800
5.8242800
5.8273300
5.8273300
5.8303800
5.8303800
5.8364900
5.8334400
5.8303800
5.8349600
5.8303800
5.8288600
5.8288600
5.8303800
5.8303800
5.8288600
5.8273300
5.8288600
5.8288600
5.8334400
5.8349600
5.8319100
5.8303800
5.8288600
5.8319100
5.8258100
5.8303800
5.8242800
5.8242800
5.8288600
5.8303800
5.8288600
5.8303800
5.8242800
5.8273300
5.8319100
5.8303800
5.8319100
5.8258100
5.8273300
5.8273300
5.8319100
5.8288600
5.8288600
5.8227500
5.8273300
5.8258100
5.8319100
5.8319100
5.8288600
5.8303800
5.8319100
5.8334400
5.8319100
5.8334400
5.8288600
5.8319100
5.8319100
5.8303800
5.8273300
5.8288600
5.8303800
5.8288600
5.8288600
5.8288600
5.8288600
5.8227500
5.8288600
5.8273300
5.8273300
5.8227500
5.8303800
5.8258100
5.8242800
5.8273300
5.8242800
5.8288600
5.8288600
5.8319100
5.8303800
5.8334400
5.8319100
5.8319100
5.8273300
5.8273300
5.8303800
5.8288600
5.8319100
5.8303800
5.8258100
5.8227500
5.8258100
5.8242800
5.8319100
5.8258100
5.8334400
5.8303800
5.8319100
5.8319100
5.8258100
5.8288600
5.8258100
5.8303800
5.8288600
5.8273300
5.8242800
5.8258100
5.8303800
5.8303800
5.8288600
5.8303800
5.8303800
5.8288600
5.8288600
5.8303800
5.8288600
5.8258100
5.8273300
5.8258100
5.8197000
5.8258100
5.8273300
5.8288600
5.8288600
5.8303800
5.8258100
5.8273300
5.8197000
5.8273300
5.8197000
5.8288600
5.8258100
5.8242800
5.8227500
5.8242800
5.8258100
5.8258100
5.8258100
5.8242800
5.8242800
5.8258100
5.8242800
5.8273300
5.8273300
5.8273300
5.8319100
5.8303800
5.8303800
5.8288600
5.8319100
5.8303800
5.8288600
5.8288600
5.8273300
5.8288600
5.8258100
5.8334400
5.8288600
5.8303800
5.8288600
5.8303800
5.8334400
5.8303800
5.8349600
5.8319100
5.8303800
5.8258100
5.8288600
5.8258100
5.8227500
5.8242800
5.8288600
5.8258100
5.8197000
5.8273300
5.8273300
5.8288600
5.8273300
5.8288600
5.8288600
5.8303800
5.8273300
5.8258100
5.8258100
5.8227500
5.8258100
5.8258100
5.8273300
5.8227500
5.8258100
5.8227500
5.8288600
5.8273300
5.8258100
5.8288600
5.8273300
5.8258100
5.8242800
5.8303800
5.8273300
5.8288600
5.8273300
5.8288600
5.8273300
5.8273300
5.8242800
5.8258100
5.8242800
5.8273300
5.8273300
5.8227500
5.8227500
5.8227500
5.8258100
5.8273300
5.8258100
5.8197000
5.8258100
5.8242800
5.8227500
5.8303800
5.8288600
5.8258100
5.8242800
5.8273300
5.8258100
5.8273300
5.8197000
5.8258100
5.8258100
5.8288600
5.8258100
5.8242800
5.8258100
5.8258100
5.8242800
5.8273300
5.8303800
5.8288600
5.8227500
5.8242800
5.8319100
5.8303800
5.8273300
5.8242800
5.8242800
5.8197000
5.8242800
5.8242800
5.8197000
5.8227500
5.8242800
5.8227500
5.8181800
5.8242800
5.8227500
5.8227500
5.8227500
5.8227500
5.8258100
5.8197000
5.8227500
5.8181800
5.8242800
5.8227500
5.8151200
5.8136000
5.8166500
5.8166500
5.8273300
5.8242800
5.8258100
5.8227500
5.8197000
5.8242800
5.8197000
5.8227500
5.8151200
5.8181800
5.8181800
5.8319100
5.8303800
5.8288600
5.8380100
5.8319100
5.8334400
5.8319100
5.8319100
5.8227500
5.8258100
5.8258100
5.8303800
5.8227500
5.8303800
5.8258100
5.8288600
5.8273300
5.8303800
5.8319100
5.8303800
5.8273300
5.8273300
5.8303800
5.8258100
5.8288600
5.8242800
5.8258100
5.8227500
5.8242800
5.8273300
5.8273300
5.8288600
5.8273300
5.8258100
5.8273300
5.8273300
5.8197000
5.8181800
5.8227500
5.8273300
5.8319100
5.8364900
5.8288600
5.8258100
5.8288600
5.8273300
5.8303800
5.8227500
5.8258100
5.8273300
5.8273300
5.8288600
5.8288600
5.8227500
5.8258100
5.8273300
5.8227500
5.8258100
5.8242800
5.8273300
5.8273300
5.8319100
5.8273300
5.8303800
5.8258100
5.8258100
5.8242800
5.8349600
5.8334400
5.8273300
5.8273300
5.8273300
5.8303800
5.8258100
5.8288600
5.8273300
5.8242800
5.8288600
5.8273300
5.8303800
5.8273300
5.8258100
5.8227500
5.8258100
5.8288600
5.8288600
5.8227500
5.8258100
5.8273300
5.8258100
5.8273300
5.8288600
5.8258100
5.8258100
5.8273300
5.8197000
5.8258100
5.8197000
5.8197000
5.8242800
5.8258100
5.8273300
5.8242800
5.8258100
5.8242800
5.8242800
5.8197000
5.8197000
5.8227500
5.8197000
5.8181800
5.8227500
5.8288600
5.8319100
5.8303800
5.8273300
5.8227500
5.8303800
5.8273300
5.8258100
5.8273300
5.8258100
5.8273300
5.8242800
5.8273300
5.8181800
5.8197000
5.8227500
5.8197000
5.8273300
5.8227500
5.8288600
5.8258100
5.8242800
5.8242800
5.8227500
5.8151200
5.8151200
5.8151200
5.8166500
5.8273300
5.8303800
5.8273300
5.8258100
5.8258100
5.8242800
5.8258100
5.8258100
5.8288600
5.8258100
5.8303800
5.8288600
5.8288600
5.8273300
5.8242800
5.8258100
5.8242800
5.8258100
5.8242800
5.8197000
5.8197000
5.8273300
5.8258100
5.8227500
5.8227500
5.8197000
5.8227500
5.8288600
5.8242800
5.8258100
5.8242800
5.8197000
5.8258100
5.8242800
5.8242800
5.8242800
5.8227500
5.8227500
5.8242800
5.8197000
5.8181800
5.8166500
5.8181800
5.8197000
5.8197000
5.8227500
5.8166500
5.8181800
5.8181800
5.8227500
5.8258100
5.8273300
5.8258100
5.8258100
5.8258100
5.8227500
5.8258100
5.8181800
5.8197000
5.8227500
5.8273300
5.8258100
5.8258100
5.8258100
5.8258100
5.8181800
5.8227500
5.8227500
5.8166500
5.8197000
5.8197000
5.8242800
5.8227500
5.8227500
5.8197000
5.8166500
5.8166500
5.8227500
5.8181800
5.8181800
5.8227500
5.8197000
5.8166500
5.8136000
5.8181800
5.8120700
5.8136000
5.8197000
5.8197000
5.8197000
5.8197000
5.8197000
5.8181800
5.8242800
5.8242800
5.8197000
5.8181800
5.8197000
5.8151200
5.8166500
5.8227500
5.8197000
5.8181800
5.8181800
5.8197000
5.8151200
5.8181800
5.8120700
5.8136000
5.8105500
5.8105500
5.8151200
5.8197000
5.8166500
5.8151200
5.8120700
5.8120700
5.8120700
5.8151200
5.8197000
5.8151200
5.8181800
5.8197000
5.8181800
5.8166500
5.8166500
5.8151200
5.8197000
5.8197000
5.8151200
5.8197000
5.8181800
5.8151200
5.8151200
5.8136000
5.8120700
5.8136000
5.8120700
5.8151200
5.8166500
5.8151200
5.8151200
5.8166500
5.8181800
5.8136000
5.8166500
5.8105500
5.8136000
5.8120700
5.8120700
5.8151200
5.8151200
5.8105500
5.8090200
5.8105500
5.8105500
5.8136000
5.8120700
5.8105500
5.8136000
5.8181800
5.8151200
5.8151200
5.8151200
5.8136000
5.8151200
5.8151200
5.8166500
5.8151200
5.8151200
5.8166500
5.8181800
5.8136000
5.8197000
5.8136000
5.8136000
5.8075000
5.8120700
5.8151200
5.8136000
5.8120700
5.8120700
5.8136000
5.8136000
5.8136000
5.8090200
5.8105500
5.8090200
5.8120700
5.8105500
5.8090200
5.8075000
5.8090200
5.8105500
5.8166500
5.8136000
5.8120700
5.8120700
5.8120700
5.8136000
5.8136000
5.8166500
5.8136000
5.8136000
5.8120700
5.8105500
5.8075000
5.8075000
5.8120700
5.8075000
5.8105500
5.8075000
5.8090200
5.8105500
5.8105500
5.8151200
5.8151200
5.8136000
5.8105500
5.8090200
5.8120700
5.8136000
5.8105500
5.8105500
5.8120700
5.8120700
5.8105500
5.8120700
5.8136000
5.8136000
5.8181800
5.8120700
5.8120700
5.8120700
5.8151200
5.8120700
5.8105500
5.8151200
5.8136000
5.8136000
5.8105500
5.8090200
5.8105500
5.8120700
5.8136000
5.8090200
5.8059700
5.8090200
5.8105500
5.8090200
5.8120700
5.8166500
5.8105500
5.8136000
5.8151200
5.8136000
5.8090200
5.8120700
5.8136000
5.8136000
5.8136000
5.8120700
5.8136000
5.8136000
5.8136000
5.8181800
5.8136000
5.8136000
5.8105500
5.8120700
5.8120700
5.8136000
5.8120700
5.8120700
5.8105500
5.8105500
5.8090200
5.8120700
5.8166500
5.8105500
5.8105500
5.8120700
5.8090200
5.8136000
5.8105500
5.8120700
5.8151200
5.8136000
5.8166500
5.8181800
5.8136000
5.8105500
5.8120700
5.8181800
5.8151200
5.8151200
5.8105500
5.8120700
5.8120700
5.8136000
5.8136000
5.8090200
5.8090200
5.8090200
5.8105500
5.8059700
5.8075000
5.8044400
5.8136000
5.8151200
5.8120700
5.8120700
5.8136000
5.8166500
5.8151200
5.8166500
5.8136000
5.8227500
5.8151200
5.8136000
5.8151200
5.8151200
5.8166500
5.8120700
5.8136000
5.8120700
5.8090200
5.8120700
5.8090200
5.8090200
5.8075000
5.8059700
5.8090200
5.8044400
5.8059700
5.8013900
5.8013900
5.8059700
5.8059700
5.8120700
5.8166500
5.8151200
5.8151200
5.8151200
5.8136000
5.8136000
5.8075000
5.8105500
5.8105500
5.8090200
5.8136000
5.8151200
5.8105500
5.8075000
5.8105500
5.8090200
5.8105500
5.8044400
5.8105500
5.8105500
5.8105500
5.8105500
5.8120700
5.8136000
5.8136000
5.8181800
5.8105500
5.8136000
5.8075000
5.8105500
5.8075000
5.8105500
5.8059700
5.8059700
5.8059700
5.8105500
5.8136000
5.8105500
5.8105500
5.8059700
5.8105500
5.8090200
5.8105500
5.8105500
5.8090200
5.8059700
5.8075000
5.8075000
5.8090200
5.8090200
5.8059700
5.8105500
5.8059700
5.8090200
5.8090200
5.8075000
5.8059700
5.8059700
5.8044400
5.8013900
5.8075000
5.8090200
5.8090200
5.8090200
5.8120700
5.8105500
5.8120700
5.8136000
5.8105500
5.8120700
5.8075000
5.8090200
5.8090200
5.8090200
5.8059700
5.8136000
5.8105500
5.8120700
5.8090200
5.8136000
5.8120700
5.8151200
5.8120700
5.8120700
5.8120700
5.8120700
5.8105500
5.8166500
5.8120700
5.8120700
5.8136000
5.8120700
5.8120700
5.8120700
5.8105500
5.8090200
5.8075000
5.8090200
5.8075000
5.8090200
5.8059700
5.8075000
5.8075000
5.8105500
5.8105500
5.8090200
5.8075000
5.8075000
5.8090200
5.8059700
5.8105500
5.8105500
5.8090200
5.8075000
5.8105500
5.8075000
5.8059700
5.8044400
5.8075000
5.8044400
5.8090200
5.8136000
5.8075000
5.8059700
5.8044400
5.8059700
5.8029200
5.8013900
5.8029200
5.8044400
5.8105500
5.8120700
5.8120700
5.8136000
5.8136000
5.8075000
5.8090200
5.8120700
5.8136000
5.8105500
5.8120700
5.8075000
5.8090200
5.8090200
5.8105500
5.8059700
5.8059700
5.8090200
5.8090200
5.8075000
5.8044400
5.8075000
5.8090200
5.8090200
5.8059700
5.8075000
5.8059700
5.8013900
5.8029200
5.8013900
5.8029200
5.8013900
5.7998700
5.7968100
5.7998700
5.8029200
5.8044400
5.7998700
5.8044400
5.8120700
5.8105500
5.8105500
5.8090200
5.8090200
5.8090200
5.8120700
5.8090200
5.8075000
5.8059700
5.8029200
5.8059700
5.8120700
5.8075000
5.8090200
5.8044400
5.8029200
5.8044400
5.8059700
5.8075000
5.8029200
5.8044400
5.8059700
5.8090200
5.8059700
5.8075000
5.8029200
5.8013900
5.8075000
5.8044400
5.8013900
5.8044400
5.8151200
5.8090200
5.8120700
5.8059700
5.8044400
5.8044400
5.8059700
5.8059700
5.8059700
5.8090200
5.8090200
5.8044400
5.8059700
5.8075000
5.8075000
5.8075000
5.8059700
5.8059700
5.8044400
5.8075000
5.8090200
5.8090200
5.8075000
5.8059700
5.8120700
5.8075000
5.8075000
5.8044400
5.8075000
5.8090200
5.8105500
5.8044400
5.8044400
5.8044400
5.7998700
5.8013900
5.8013900
5.8013900
5.7983400
5.8013900
5.8044400
5.8013900
5.8044400
5.8029200
5.8044400
5.8029200
5.8029200
5.8044400
5.8059700
5.7998700
5.8044400
5.8029200
5.8059700
5.8075000
5.8075000
5.8044400
5.8044400
5.8013900
5.8044400
5.8090200
5.8044400
5.8029200
5.8013900
5.8059700
5.8013900
5.8059700
5.8013900
5.8013900
5.7998700
5.7968100
5.7983400
5.7983400
5.7998700
5.8013900
5.8090200
5.8059700
5.8090200
5.8044400
5.8059700
5.8044400
5.8090200
5.8075000
5.8090200
5.8075000
5.8013900
5.7983400
5.8044400
5.8013900
5.7998700
5.7952900
5.7983400
5.7998700
5.7983400
5.7968100
5.7998700
5.7952900
5.8013900
5.8013900
5.7983400
5.7952900
5.8044400
5.7998700
5.7998700
5.7968100
5.7952900
5.7983400
5.8013900
5.7998700
5.7998700
5.8044400
5.8029200
5.8044400
5.8013900
5.8059700
5.7998700
5.8013900
5.7998700
5.7998700
5.8013900
5.8059700
5.8059700
5.7998700
5.8013900
5.8029200
5.8075000
5.8029200
5.8029200
5.7983400
5.7998700
5.8013900
5.8029200
5.8044400
5.8044400
5.8059700
5.8029200
5.8059700
5.8029200
5.8029200
5.8044400
5.8029200
5.8029200
5.8029200
5.7983400
5.7983400
5.8013900
5.7983400
5.7998700
5.7998700
5.8059700
5.8105500
5.8090200
5.8090200
5.8105500
5.8059700
5.8059700
5.8013900
5.8013900
5.8044400
5.8029200
5.8029200
5.8013900
5.8029200
5.8013900
5.7998700
5.8059700
5.8059700
5.8059700
5.8090200
5.8059700
5.8044400
5.8059700
5.8013900
5.8044400
5.8059700
5.8075000
5.8044400
5.8044400
5.8013900
5.8013900
5.8029200
5.8044400
5.8044400
5.8090200
5.8090200
5.8044400
5.8075000
5.8013900
5.8044400
5.7968100
5.7983400
5.7998700
5.7983400
5.7968100
5.7952900
5.8013900
5.7983400
5.8044400
5.8075000
5.8090200
5.8029200
5.8075000
5.8075000
5.8090200
5.8105500
5.8059700
5.8059700
5.8044400
5.8044400
5.7983400
5.8059700
5.8013900
5.8059700
5.8029200
5.8044400
5.7998700
5.8029200
5.7968100
5.8029200
5.8059700
5.8013900
5.8029200
5.8013900
5.7998700
5.7998700
5.8059700
5.8013900
5.8059700
5.7998700
5.8029200
5.8013900
5.8059700
5.8029200
5.8059700
5.8044400
5.8029200
5.8029200
5.8044400
5.7998700
5.8044400
5.8013900
5.7998700
5.8029200
5.7998700
5.7983400
5.8013900
5.7968100
5.8029200
5.8044400
5.8029200
5.7968100
5.8044400
5.7998700
5.8013900
5.7998700
5.7983400
5.7968100
5.7998700
5.8013900
5.7998700
5.8013900
5.7983400
5.8013900
5.8013900
5.8044400
5.8029200
5.7983400
5.7968100
5.7968100
5.8013900
5.7968100
5.8013900
5.7983400
5.7968100
5.8013900
5.8044400
5.8013900
5.8044400
5.8013900
5.7998700
5.8013900
5.7998700
5.8044400
5.8075000
5.8044400
5.8013900
5.8013900
5.7983400
5.7968100
5.7952900
5.7983400
5.7968100
5.7968100
5.7998700
5.7968100
5.7983400
5.7968100
5.7952900
5.7952900
5.7998700
5.7952900
5.7968100
5.7998700
5.7998700
5.7968100
5.7968100
5.8013900
5.8044400
5.8044400
5.8044400
5.8029200
5.7998700
5.8029200
5.8013900
5.8059700
5.8029200
5.8044400
5.7983400
5.8013900
5.8029200
5.8044400
5.8059700
5.7998700
5.7968100
5.7952900
5.8013900
5.7983400
5.8029200
5.7968100
5.8013900
5.7998700
5.7998700
5.8013900
5.8044400
5.8044400
5.8044400
5.8059700
5.8044400
5.7998700
5.7952900
5.7952900
5.7968100
5.7937600
5.8013900
5.7998700
5.8013900
5.7968100
5.7998700
5.8029200
5.8029200
5.7983400
5.8013900
5.7998700
5.8029200
5.8029200
5.7983400
5.7968100
5.7998700
5.7968100
5.7968100
5.7983400
5.7983400
5.7968100
5.8013900
5.8044400
5.7983400
5.7968100
5.7968100
5.7937600
5.7968100
5.7968100
5.7983400
5.7952900
5.7998700
5.7968100
5.7998700
5.7937600
5.7952900
5.7861300
5.7952900
5.8044400
5.8044400
5.8044400
5.8059700
5.8059700
5.8013900
5.8044400
5.7998700
5.8029200
5.7998700
5.7983400
5.7983400
5.8013900
5.8013900
5.8013900
5.7998700
5.7983400
5.8013900
5.7968100
5.7983400
5.7968100
5.7998700
5.7998700
5.8013900
5.7998700
5.7998700
5.7983400
5.7998700
5.8013900
5.8044400
5.8059700
5.8029200
5.7998700
5.8013900
5.8075000
5.8075000
5.8044400
5.8044400
5.7983400
5.8029200
5.8029200
5.8029200
5.8029200
5.8013900
5.8029200
5.8044400
5.8013900
5.7998700
5.7952900
5.7968100
5.7968100
5.7983400
5.7998700
5.8029200
5.8044400
5.8059700
5.8075000
5.8044400
5.8013900
5.7998700
5.7983400
5.7998700
5.7998700
5.8029200
5.7983400
5.7968100
5.7968100
5.7968100
5.7998700
5.8013900
5.7968100
5.7983400
5.7968100
5.7998700
5.8029200
5.7998700
5.7998700
5.7983400
5.7983400
5.7968100
5.7983400
5.7968100
5.7937600
5.7952900
5.7952900
5.7937600
5.7952900
5.7861300
5.7952900
5.7983400
5.7952900
5.8012956
5.8046935
5.8009571
5.8019606
5.8022066
5.8006675
5.8005194
5.7992123
5.8005337
5.7975798
5.7976654
5.7988646
5.7964233
5.7955065
5.7952086
5.7952257
5.7984952
5.7996303
5.7955472
5.7980777
5.8000719
5.8012527
5.8029405
5.7999550
5.7981133
5.7971516
5.8009119
5.8050133
5.7991959
5.7960051
5.7975983
5.8005579
5.7992689
5.7972305
5.7996685
5.7967043
5.7957222
5.7898957
5.7918801
5.7952823
5.7940424
5.7963141
5.7974139
5.8022973
5.8003668
5.8010785
5.7968405
5.8001542
5.8053120
5.8023758
5.8031434
5.7983560
5.7981215
5.7956160
5.7979404
5.7987347
5.7979584
5.7971300
5.7919612
5.7985504
5.7966360
5.7954022
5.7982625
5.7937715
5.7983693
5.7997736
5.7984673
5.7981705
5.7954504
5.7981891
5.7999531
5.7967968
5.7966989
5.8000982
5.7949058
5.7927508
5.7961607
5.7990688
5.7960185
5.7914811
5.7960921
5.7958660
5.7994617
5.7985110
5.7923055
5.7964683
5.7973976
5.7959638
5.7993899
5.8001472
5.7996985
5.7984269
5.7982443
5.8000053
5.7965303
5.7988062
5.7976211
5.7947369
5.7970598
5.7953176
5.7949677
5.7943270
5.7929507
5.7932258
5.7956626
5.7980435
5.7924626
5.7889414
5.7940468
5.7948911
5.7973300
5.7991756
5.7976628
5.7957830
5.7949379
5.7954998
5.7936289
5.7938252
5.7936900
5.7953776
5.7951205
5.7940127
5.7979546
5.7973132
5.7931067
5.7945297
5.7928622
5.7932101
5.7957768
5.7917340
5.7942935
5.7977065
5.7975541
5.7959073
5.7933032
5.7924992
5.7936672
5.7906225
5.7878743
5.7934239
5.7956806
5.7948577
5.7956957
5.7979698
5.7955650
5.7920571
5.7938051
5.7923150
5.7904833
5.7941063
5.7917577
5.7882305
5.7946294
5.8005617
5.7991527
5.7959715
5.7961680
5.7943074
5.7963496
5.8002031
5.7981106
5.7969108
5.7983309
5.7982430
5.7954488
5.7950592
5.7955476
5.7949923
5.7940584
5.7949696
5.7956028
5.7964732
5.7986815
5.7964238
5.7926574
5.7947979
5.7958436
5.7915843
5.7944963
5.7944463
5.7916213
5.7927741
5.7947628
5.7942767
5.7886198
5.7898074
5.7869231
5.7854295
5.7882409
5.7947858
5.8002928
5.7918437
5.7971751
5.7994952
5.7956454
5.7964612
5.7925279
5.7950665
5.7938596
5.7937816
5.7935734
5.7910369
5.7948038
5.7989364
5.7945871
5.7914509
5.7945285
5.7883677
5.7900686
5.7942750
5.7918439
5.7939985
5.7936527
5.7921922
5.7924060
5.7934589
5.7926355
5.7932540
5.7958669
5.7961443
5.7944769
5.7960234
5.7991580
5.7928959
5.7915744
5.7944197
5.7915315
5.7929864
5.7944325
5.7962300
5.7942075
5.7918999
5.7970200
5.7982193
5.7937820
5.7922654
5.7936850
5.7938289
5.7952255
5.7952986
5.7907474
5.7875369
5.7908930
5.7904467
5.7925352
5.7903863
5.7848933
5.7920123
5.7923438
5.7937805
5.7905250
5.7879735
5.7933164
5.7942628
5.7978027
5.7972974
5.7979282
5.7955537
5.7966977
5.7982577
5.7940079
5.7963840
5.7973595
5.7946239
5.7914248
5.7945404
5.7975242
5.7915738
5.7912612
5.7933309
5.7940088
5.8013138
5.7997393
5.7986389
5.7963456
5.7927930
5.7962036
5.7943201
5.7963407
5.7940444
5.7936860
5.7950885
5.7942275
5.7945275
5.7886748
5.7894409
5.7952200
5.7982317
5.7985542
5.7965082
5.7925550
5.7919183
5.7955281
5.7966562
5.7968266
5.7954232
5.7918938
5.7912492
5.7914698
5.7932030
5.7940961
5.7905459
5.7876542
5.7923474
5.7951007
5.7924290
5.7935996
5.7922889
5.7923232
5.7950069
5.7942424
5.7915167
5.7931733
5.7956584
5.7981136
5.7923319
5.7891136
5.7923335
5.7874176
5.7941889
5.7930671
5.7901643
5.7939876
5.7922841
5.7904075
5.7881326
5.7931606
5.7943811
5.7931642
5.7911845
5.7903845
5.7923471
5.7969168
5.7979856
5.7943223
5.7945188
5.7946727
5.7957753
5.7948365
5.7941967
5.7932712
5.7928088
5.7945632
5.7946389
5.7957369
5.7965545
5.7937905
5.7924009
5.7918762
5.7942702
5.7946441
5.7929462
5.7960676
5.7929380
5.7916065
5.7942603
5.7949249
5.7924228
5.7906883
5.7935960
5.7940682
5.7933004
5.7927963
5.7931092
5.7929244
5.7930471
5.7929200
5.7900666
5.7912582
5.7917863
5.7864374
5.7905371
5.7968122
5.7938990
5.7919421
5.7941700
5.7947655
5.7943389
5.7946654
5.7943628
5.7962401
5.7957621
5.7933896
5.7924553
5.7921689
5.7906003
5.7909708
5.7902809
5.7882090
5.7930899
5.7960211
5.7929742
5.7930166
5.7945295
5.7883436
5.7840029
5.7850897
5.7827146
5.7832925
5.7875749
5.7875926
5.7908898
5.7949890
5.7941272
5.7918104
5.7911391
5.7948668
5.7925996
5.7919375
5.7909148
5.7875270
5.7907482
5.7907274
5.7921513
5.7954092
5.7966429
5.7969891
5.7965964
5.7955072
5.7935124
5.7909592
5.7873824
5.7909836
5.7904200
5.7833461
5.7843531
5.7878651
5.7920693
5.7953915
5.7982802
5.7968063
5.7953168
5.7998093
5.7983878
5.7967652
5.7937593
5.7876878
5.7875711
5.7908329
5.7920563
5.7848218
5.7828177
5.7940349
5.7949879
5.7925216
5.7980761
5.8000594
5.7966972
5.7937404
5.7969567
5.7949736
5.7911714
5.7900837
5.7868725
5.7868036
5.7885619
5.7852009
5.7824354
5.7853333
5.7867671
5.7917797
5.7909294
5.7846261
5.7827902
5.7836108
5.7868752
5.7840636
5.7803841
5.7828554
5.7801677
5.7799014
5.7817043
5.7828161
5.7896045
5.7824381
5.7824302
5.7910952
5.7905456
5.7876109
5.7847919
5.7858502
5.7864099
5.7919997
5.7923508
5.7907503
5.7904551
5.7865903
5.7869619
5.7870263
5.7865610
5.7873663
5.7847763
5.7859932
5.7862865
5.7843420
5.7896038
5.7885155
5.7855504
5.7863693
5.7907964
5.7902802
5.7929481
5.7928071
5.7856972
5.7895553
5.7872245
5.7866906
5.7853454
5.7856608
5.7923753
5.7939465
5.7947590
5.7945815
5.7896140
5.7889421
5.7923355
5.7875896
5.7862163
5.7874548
5.7910693
5.7916481
5.7869598
5.7865470
5.7874977
5.7860248
5.7864433
5.7871538
5.7852261
5.7854361
5.7852900
5.7854959
5.7835854
5.7842476
5.7832414
5.7861537
5.7935259
5.7911084
5.7870980
5.7852694
5.7838672
5.7838321
5.7869147
5.7852782
5.7840261
5.7865718
5.7858240
5.7877849
5.7861691
5.7843715
5.7880694
5.7855289
5.7853551
5.7837232
5.7825166
5.7866572
5.7855725
5.7852365
5.7838239
5.7870777
5.7864958
5.7844410
5.7845613
5.7802452
5.7827021
5.7835532
5.7840524
5.7836554
5.7794416
5.7759936
5.7749451
5.7743485
5.7705222
5.7802666
5.7905639
5.7815830
5.7846779
5.7966358
5.7970396
5.7919574
5.7833526
5.7813047
5.7847848
5.7860375
5.7845664
5.7817291
5.7812263
5.7850801
5.7855043
5.7853421
5.7868236
5.7854827
5.7837173
5.7823958
5.7853693
5.7852237
5.7826204
5.7818098
5.7784473
5.7752712
5.7804039
5.7840316
5.7822822
5.7868068
5.7916168
5.7897745
5.7870104
5.7853304
5.7821999
5.7841429
5.7848453
5.7845935
5.7813289
5.7819939
5.7900737
5.7869014
5.7852380
5.7855504
5.7821039
5.7825048
5.7837017
5.7838928
5.7838889
5.7867108
5.7856745
5.7803253
5.7844421
5.7831074
5.7816155
5.7860024
5.7816843
5.7814577
5.7815682
5.7831707
5.7828397
5.7803992
5.7825573
5.7821921
5.7838620
5.7823679
5.7806924
5.7824285
5.7806915
5.7823696
5.7838596
5.7806651
5.7810340
5.7804021
5.7782591
5.7785844
5.7831070
5.7829401
5.7817450
5.7828685
5.7786567
5.7799505
5.7814873
5.7833114
5.7841685
5.7806599
5.7776609
5.7794955
5.7819365
5.7812429
5.7818261
5.7797042
5.7804373
5.7809861
5.7792593
5.7774990
5.7782278
5.7784854
5.7787692
5.7840726
5.7823104
5.7760228
5.7780717
5.7803541
5.7797359
5.7833722
5.7842342
5.7835633
5.7854740
5.7869884
5.7850318
5.7844271
5.7845189
5.7834114
5.7840244
5.7808179
5.7790402
5.7796282
5.7787728
5.7798143
5.7802059
5.7813445
5.7818290
5.7857144
5.7897762
5.7868174
5.7918071
5.7908385
5.7817107
5.7765370
5.7776525
5.7837278
5.7856124
5.7850462
5.7810967
5.7820681
5.7824287
5.7808546
5.7820360
5.7782490
5.7754343
5.7772328
5.7779937
5.7807342
5.7776081
5.7733993
5.7789527
5.7780437
5.7790112
5.7885494
5.7914989
5.7851363
5.7827660
5.7846700
5.7832440
5.7796281
5.7790822
5.7792787
5.7793408
5.7821780
5.7839538
5.7837945
5.7807053
5.7825580
5.7818726
5.7829566
5.7845258
5.7817940
5.7827112
5.7850301
5.7902697
5.7880328
5.7843295
5.7847263
5.7846586
5.7828238
5.7850412
5.7839971
5.7792262
5.7807453
5.7823700
5.7823149
5.7806520
5.7811153
5.7771662
5.7785786
5.7857416
5.7929037
5.7912996
5.7811728
5.7817662
5.7829466
5.7847142
5.7874743
5.7848960
5.7825940
5.7837984
5.7820809
5.7813262
5.7860378
5.7865138
5.7808774
5.7824748
5.7819570
5.7782160
5.7802564
5.7767153
5.7788452
5.7795146
5.7792010
5.7836677
5.7842429
5.7832068
5.7846698
5.7843731
5.7818970
5.7841976
5.7789053
5.7766011
5.7803132
5.7813731
5.7831219
5.7816444
5.7813187
5.7819231
5.7795295
5.7821482
5.7854522
5.7807363
5.7793008
5.7837679
5.7854885
5.7851450
5.7841799
5.7803057
5.7814218
5.7815296
5.7801917
5.7827756
5.7819539
5.7795456
5.7774972
5.7810069
5.7805692
5.7764396
5.7759554
5.7749514
5.7743950
5.7734644
5.7774206
5.7765332
5.7743521
5.7811369
5.7819512
5.7811729
5.7819164
5.7796689
5.7773262
5.7781274
5.7819423
5.7811276
5.7804917
5.7810364
5.7805847
5.7794220
5.7776006
5.7778523
5.7776090
5.7794074
5.7806011
5.7779654
5.7774365
5.7796322
5.7803326
5.7782677
5.7755820
5.7769156
5.7784748
5.7755242
5.7722616
5.7710263
5.7737441
5.7817270
5.7844519
5.7801325
5.7799685
5.7784826
5.7800982
5.7829391
5.7786701
5.7782912
5.7802256
5.7798422
5.7786271
5.7769067
5.7754201
5.7771003
5.7782474
5.7742935
5.7764726
5.7806505
5.7762252
5.7762927
5.7775678
5.7794528
5.7790777
5.7763142
5.7808163
5.7805646
5.7812569
5.7830840
5.7818483
5.7778870
5.7793920
5.7819161
5.7783328
5.7785264
5.7785293
5.7800149
5.7814643
5.7817985
5.7810688
5.7807816
5.7789591
5.7783415
5.7798688
5.7835008
5.7809012
5.7747300
5.7776095
5.7778454
5.7761961
5.7729933
5.7705055
5.7709244
5.7741874
5.7717927
5.7717809
5.7742466
5.7753338
5.7800048
5.7785697
5.7815150
5.7814597
5.7787743
5.7749328
5.7777488
5.7804938
5.7737110
5.7800028
5.7802372
5.7720254
5.7728679
5.7718554
5.7729443
5.7795028
5.7774182
5.7751073
5.7802210
5.7830285
5.7783767
5.7772443
5.7796108
5.7790206
5.7809390
5.7791594
5.7793354
5.7791709
5.7747999
5.7775563
5.7810498
5.7819551
5.7797392
5.7771221
5.7769678
5.7737797
5.7772562
5.7780881
5.7759358
5.7779547
5.7775039
5.7795534
5.7788466
5.7767818
5.7769629
5.7772073
5.7749751
5.7807121
5.7821927
5.7795131
5.7804574
5.7750190
5.7805293
5.7809072
5.7762789
5.7789617
5.7828434
5.7845963
5.7832938
5.7842034
5.7836024
5.7809491
5.7791096
5.7794541
5.7789553
5.7812463
5.7786046
5.7770793
5.7781586
5.7759987
5.7762114
5.7702845
5.7728282
5.7812399
5.7817631
5.7829227
5.7786275
5.7753042
5.7786972
5.7766681
5.7758912
5.7839679
5.7839337
5.7789002
5.7814351
5.7783041
5.7774679
5.7761891
5.7734264
5.7742148
5.7767934
5.7786299
5.7752733
5.7803240
5.7810620
5.7807515
5.7790307
5.7797477
5.7800592
5.7725497
5.7751501
5.7742870
5.7765978
5.7803550
5.7767238
5.7725312
5.7739060
5.7753401
5.7725984
5.7782091
5.7788226
5.7751008
5.7803405
5.7812956
5.7801829
5.7815228
5.7753155
5.7772727
5.7780175
5.7791307
5.7945064
5.8007466
5.8034767
5.8115398
5.8125853
5.8023806
5.7912590
5.7779213
5.7699288
5.7626530
5.7561551
5.7581781
5.7544719
5.7644786
5.7618912
5.7570119
5.7740448
5.7843918
5.7895469
5.7717738
5.7565364
5.7665190
5.7756206
5.7778955
5.7749324
5.7648996
5.7725855
5.7902556
5.8065716
5.8373376
5.8828851
5.9565431
6.0152918
6.0393912
6.0208870
5.9681679
5.9106125
5.8372287
5.7716007
5.7243177
5.6923925
5.6737193
5.6728505
5.6551044
5.6380107
5.6625929
5.6853034
5.6993914
5.7154766
5.7349911
5.7453701
5.7524589
5.7507795
5.7515910
5.7639648
5.7657114
5.7729202
5.7870804
5.8036098
5.8126811
5.8422179
5.9082925
5.9999134
6.0695797
6.0826627
6.0769940
6.0293236
5.9397450
5.8368543
5.7508293
5.6915342
5.6398277
5.6209362
5.6158255
5.6143927
5.6086494
5.5986682
5.6381311
5.6851816
5.7117645
5.7306835
5.7393486
5.7505765
5.7589239
5.7663033
5.7674345
5.7716814
5.7726370
5.7741494
5.7778225
5.7810785
5.8000244
5.8151543
5.8165221
5.8167382
5.8151600
5.8026190
5.7959031
5.7866224
5.7814886
5.7826969
5.7762343
5.7742836
5.7769022
5.7798719
5.7757402
5.7766217
5.7772910
5.7767313
5.7785962
5.7739937
5.7705930
5.7698223
5.7701721
5.7717641
5.7713092
5.7736303
5.7756146
5.7707735
5.7815965
5.8105102
5.8365365
5.8485861
5.8503770
5.8545506
5.8566485
5.8574128
5.8583727
5.8450152
5.8264959
5.8143734
5.8067154
5.7899815
5.7669349
5.7459371
5.7223869
5.7264654
5.7433397
5.7543414
5.7643399
5.7683471
5.7702807
5.7729493
5.7841441
5.8047276
5.8501357
5.8805651
5.8887902
5.9136350
5.9411342
5.9605325
5.9536691
5.9389035
5.9203117
5.8868523
5.8426256
5.7768813
5.7206029
5.6762039
5.6609628
5.6764673
5.6788654
5.6907733
5.7071358
5.7175511
5.7413065
5.7612361
5.7586496
5.7514811
5.7532450
5.7628554
5.7634196
5.7768690
5.8107124
5.8452586
5.9134838
5.9589337
5.9647756
5.9579140
5.9322391
5.9065794
5.8659810
5.8234298
5.7933320
5.7665429
5.7417075
5.7145717
5.6989106
5.7010465
5.6924939
5.6831268
5.6874938
5.7048894
5.7237751
5.7402282
5.7557154
5.7646111
5.7909602
5.8147150
5.8568569
5.9090696
5.9378886
5.9609461
5.9743261
5.9872982
5.9965773
5.9988029
5.9803492
5.9540942
5.9151631
5.8590032
5.8089596
5.7696981
5.7505104
5.7454593
5.7445369
5.7404397
5.7315361
5.7196013
5.7236126
5.7273736
5.7387909
5.7549437
5.7538484
5.7476840
5.7364519
5.7317838
5.7322312
5.7363008
5.7396529
5.7931787
5.8825155
5.9235665
5.9412853
5.9548437
5.9558089
5.9478957
5.9140171
5.8751057
5.8282713
5.7836524
5.7688696
5.7451981
5.7342249
5.6882053
5.6432225
5.6968692
5.7351534
5.7469699
5.7688751
5.7759012
5.8024277
5.8415989
5.8694187
5.8982686
5.9195095
5.9245129
5.9283279
5.9309907
5.9248630
5.8994056
5.8633210
5.8236541
5.7925320
5.7983503
5.8162965
5.8371470
5.8553650
5.8346218
5.8061165
5.8074338
5.7907385
5.7646353
5.7589959
5.7595275
5.7826317
5.7921712
5.7806332
5.7605445
5.7527181
5.7763418
5.7993391
5.8184192
5.8455407
5.8853700
5.8958624
5.9023825
5.9229522
5.9105104
5.9147072
5.9158031
5.8955946
5.8968440
5.8626470
5.8351391
5.8222414
5.7853146
5.7746598
5.7853123
5.7993508
5.7664788
5.7222332
5.7015814
5.6940708
5.7084319
5.7206918
5.7765479
5.8401409
5.8647398
5.8968074
5.9256618
5.9349628
5.9379518
5.9469988
5.9504294
5.9283323
5.8745630
5.8027136
5.7484523
5.7182521
5.7351950
5.7712764
5.7842712
5.7956146
5.8100984
5.8447353
5.8676420
5.8635868
5.8563686
5.8443490
5.8344663
5.8264843
5.8127974
5.8235604
5.8494803
5.8690707
5.9155553
5.9294980
5.9254114
5.9394800
5.9382361
5.9267801
5.8958305
5.8579945
5.8072687
5.7620720
5.7382589
5.7334924
5.7515634
5.7705302
5.7725617
5.7631798
5.7678006
5.7724185
5.7739269
5.7860535
5.7954413
5.7980742
5.8200498
5.8635081
5.8979987
5.9138180
5.9177902
5.9246675
5.9571532
5.9953192
6.0252037
6.0479765
6.0258134
5.9833691
5.9347403
5.8806231
5.8331108
5.7913761
5.7836808
5.7978624
5.7881003
5.7459172
5.7288632
5.7500429
5.7706603
5.7737580
5.7805600
5.7974187
5.7935015
5.7784353
5.7818849
5.8008246
5.8219601
5.8569613
5.8832426
5.9040787
5.9276651
5.9298495
5.9263110
5.9098319
5.8868025
5.8578263
5.8410857
5.8486790
5.8333749
5.8183185
5.8164111
5.8398287
5.8605852
5.8428407
5.8317701
5.8150603
5.7940364
5.7718625
5.7685733
5.7897595
5.8146435
5.8277913
5.8206661
5.8570549
5.8995780
5.9323824
5.9828840
6.0123466
6.0295939
6.0403511
6.0443901
6.0224309
5.9693018
5.8944932
5.7951809
5.7435085
5.7540209
5.7845526
5.8183914
5.8070298
5.7868630
5.7927235
5.7935672
5.7966912
5.7987259
5.8007321
5.8114239
5.8231972
5.8331359
5.8458215
5.8638240
5.8701771
5.8805318
5.8963292
5.8878084
5.8830842
5.8795843
5.8700255
5.8956587
5.9043235
5.8659562
5.8637495
5.8624218
5.8823244
5.9250081
5.8972287
5.8631297
5.8245506
5.8032367
5.8050387
5.8089568
5.8147559
5.8065915
5.8159144
5.7944278
5.7704006
5.7740831
5.8229352
5.9030786
5.9533077
6.0016990
6.0406825
6.0487822
6.0544455
6.0535249
5.9656272
5.8586303
5.8140957
5.7858314
5.7847186
5.8044512
5.8256934
5.8396881
5.8317268
5.7969887
5.7691736
5.7771051
5.7921247
5.8044965
5.8074910
5.8104506
5.8260009
5.8422279
5.8538022
5.8616740
5.8832377
5.9100307
5.9340642
5.9568853
5.9680211
5.9626875
5.9560058
5.9473839
5.9070871
5.8606293
5.8441718
5.8336317
5.8100545
5.8006583
5.7987687
5.7890144
5.7845503
5.7985077
5.8149051
5.8305123
5.8518046
5.8650885
5.8937356
5.9298062
5.9603610
5.9684290
5.9796673
6.0118218
6.0260920
6.0175509
5.9925818
5.9445740
5.8790924
5.8569216
5.8368413
5.8046701
5.7914215
5.7950755
5.8271152
5.8461542
5.8525703
5.8265685
5.7884351
5.8004905
5.8207652
5.8168579
5.8411111
5.8697033
5.8691799
5.8858637
5.8927131
5.9141466
5.9210089
5.8902855
5.9007792
5.9378474
5.9890966
5.9960339
6.0177443
6.0195503
5.9434664
5.8852428
5.7522931
5.6724482
5.7023698
5.7133335
5.7331988
5.7541290
5.7871706
5.8372978
5.8979643
5.9216764
5.9281432
5.9479053
5.9492234
5.9771949
6.0236701
6.0477268
6.0584350
6.0724385
6.0612560
6.0374616
6.0109379
5.9502506
5.8801433
5.8367220
5.8259866
5.8190537
5.8543521
5.8716258
5.8321389
5.8162571
5.8200922
5.8484347
5.8578365
5.8597083
5.8678086
5.8665425
5.8793408
5.9006682
5.9247355
5.9420640
5.9827088
6.0166841
6.0257024
6.0239966
6.0214380
6.0252617
5.9987273
5.9473619
5.8644238
5.8253956
5.8779907
5.8881907
5.8914181
5.9496054
5.9535179
5.9211265
5.8919621
5.8590278
5.8351547
5.8287120
5.8412343
5.8483731
5.8644999
5.8783449
5.8773956
5.8806184
5.9041539
5.9332114
5.9384642
5.9340918
5.9435602
5.9688252
5.9864736
5.9611929
5.8901686
5.8425120
5.8607183
5.9010435
5.9013125
5.8879050
5.8855177
5.8837563
5.8943815
5.8991650
5.9142143
5.9265161
5.9067755
5.8911922
5.9008983
5.9047352
5.9116722
5.9368212
5.9740221
6.0196415
6.0435948
6.0479110
6.0228152
5.9940021
5.9409055
5.8515490
5.8438836
5.8797797
5.8768428
5.8832728
5.8811642
5.8832986
5.9119014
5.9148811
5.9232523
5.9262636
5.9165334
5.9131393
5.9250035
5.9658485
5.9880839
5.9975741
6.0080326
6.0144503
6.0031940
5.9553443
5.9095882
5.9025483
5.8906018
5.8590051
5.8578450
5.8673490
5.8922359
5.9382473
5.9754574
5.9984342
5.9900999
5.9821623
5.9745066
5.9837663
5.9869518
5.9724797
5.9970991
6.0153693
6.0567404
6.0532263
5.9655177
5.8912466
5.8495519
5.8167794
5.7863300
5.8224027
5.8642726
5.8836064
5.8989791
5.9009056
5.9091044
5.9105941
5.9284647
5.9552559
5.9968073
6.0501015
6.0820788
6.1021071
6.0972662
6.0334664
5.9492897
5.9250206
5.8853901
5.8133268
5.8140999
5.8448437
5.8848743
5.9251326
5.9418524
5.9445808
5.9512241
5.9781254
5.9678464
5.9525183
5.9414559
5.9225088
5.9271919
5.9230146
5.9358733
5.9509461
5.9460913
5.9193769
5.8540324
5.8176666
5.8016459
5.8196446
5.8974270
5.9449957
5.9553041
5.9526201
5.9447128
5.9540003
5.9769096
5.9981136
6.0136136
6.0026986
5.9936614
6.0105834
5.9917491
5.9424009
5.8813667
5.8620204
5.8855633
5.8912146
5.8871146
5.8970172
5.9334633
5.9404549
5.9466792
5.9561184
5.9310613
5.9244457
5.9275637
5.9295669
5.9284157
5.9334406
5.9579573
5.9575008
5.9519735
5.9652643
5.9851202
6.0010986
6.0130649
6.0237975
6.0221600
6.0286028
5.9867717
5.9494795
5.9516724
5.9384724
5.9173273
5.8701093
5.8732519
5.8954504
5.9047029
5.9232567
5.9151966
5.9157546
5.9181233
5.9204935
5.9346564
5.9330807
5.9295267
5.9308061
5.9376563
5.9458525
5.9421476
5.9492938
5.9704634
5.9975158
6.0288599
6.0628476
6.0702946
6.0579782
6.0157928
5.9611988
5.9312880
5.8836106
5.8642593
5.8785988
5.8939617
5.9082078
5.9087495
5.9253768
5.9480661
5.9608661
5.9826704
5.9615190
5.9344694
5.9352452
5.9024243
5.9126789
5.9399881
5.9287269
5.9283991
5.9373015
5.9457765
5.9473145
5.9450533
5.9387069
5.9279245
5.9266246
5.9265264
5.9292827
5.9378563
5.9375448
5.9374132
5.9286990
5.9295481
5.9320182
5.9382949
5.9525029
5.9571768
5.9523060
5.9203472
5.9132379
5.9178348
5.9282731
5.9788565
5.9681281
5.9022772
5.9272457
5.9783426
5.9822052
5.9725115
5.9723784
5.9950072
6.0012802
6.0047141
5.9835288
5.9571836
5.9545338
5.9374595
5.9193262
5.9237301
5.9256331
5.9339131
5.9509280
5.9570211
5.9801546
5.9868857
5.9918384
5.9993574
6.0054601
5.9963723
5.9488537
5.9143047
5.9024951
5.9121379
5.9409375
5.9823717
6.0061813
5.9754285
5.9319828
5.9293005
5.9321873
5.9428781
5.9369694
5.9089467
5.9055220
5.8989148
5.9036553
5.9172585
5.9328812
5.9427495
5.9487372
5.9573415
5.9661959
5.9719980
5.9407436
5.9075681
5.9119138
5.9258829
5.9376776
5.9567370
5.9585878
5.9832200
6.0205757
5.9929364
5.9605596
5.9689494
5.9724210
5.9554730
5.9417490
5.9356781
5.9372303
5.9492494
5.9573498
5.9641048
5.9578680
5.9390463
5.9265968
5.9244130
5.9413448
5.9507919
5.9592401
5.9969995
6.0350583
6.0540328
6.0648552
6.0427302
5.9904814
5.9449294
5.9140495
5.8675335
5.8141713
5.8303208
5.8512200
5.8604783
5.8928025
5.9072973
5.9315833
5.9583577
5.9844948
6.0120648
6.0103057
5.9891503
5.9814648
5.9721285
5.9573416
5.9565478
5.9469811
5.9348818
5.9167476
5.9101936
5.9368328
5.9466150
5.9552926
