2.5745200
2.5699500
2.5653700
2.5699500
2.5699500
2.5760500
2.5775800
2.5760500
2.5836800
2.5867300
2.5882600
2.5836800
2.5852100
2.5852100
2.5821500
2.5852100
2.5791000
2.5806300
2.5806300
2.5821500
2.5821500
2.5791000
2.5775800
2.5745200
2.5714700
2.5699500
2.5668900
2.5714700
2.5699500
2.5745200
2.5806300
2.5852100
2.5882600
2.5852100
2.5836800
2.5775800
2.5836800
2.5821500
2.5821500
2.5806300
2.5791000
2.5745200
2.5730000
2.5699500
2.5668900
2.5714700
2.5668900
2.5775800
2.5791000
2.5791000
2.5791000
2.5745200
2.5745200
2.5806300
2.5791000
2.5760500
2.5821500
2.5836800
2.5775800
2.5791000
2.5806300
2.5775800
2.5775800
2.5760500
2.5806300
2.5806300
2.5806300
2.5852100
2.5821500
2.5791000
2.5775800
2.5806300
2.5745200
2.5806300
2.5730000
2.5730000
2.5760500
2.5760500
2.5775800
2.5806300
2.5806300
2.5760500
2.5775800
2.5760500
2.5775800
2.5760500
2.5760500
2.5760500
2.5745200
2.5760500
2.5714700
2.5730000
2.5714700
2.5714700
2.5699500
2.5714700
2.5623200
2.5699500
2.5638400
2.5745200
2.5806300
2.5760500
2.5714700
2.5760500
2.5775800
2.5760500
2.5791000
2.5791000
2.5806300
2.5791000
2.5791000
2.5775800
2.5775800
2.5791000
2.5836800
2.5791000
2.5760500
2.5775800
2.5699500
2.5745200
2.5745200
2.5821500
2.5760500
2.5821500
2.5745200
2.5791000
2.5775800
2.5775800
2.5760500
2.5791000
2.5760500
2.5791000
2.5760500
2.5775800
2.5745200
2.5714700
2.5668900
2.5714700
2.5730000
2.5791000
2.5745200
2.5760500
2.5775800
2.5791000
2.5775800
2.5760500
2.5714700
2.5730000
2.5699500
2.5745200
2.5699500
2.5668900
2.5638400
2.5607900
2.5730000
2.5775800
2.5852100
2.5943600
2.5913100
2.5852100
2.5852100
2.5791000
2.5775800
2.5699500
2.5745200
2.5714700
2.5714700
2.5699500
2.5653700
2.5699500
2.5714700
2.5699500
2.5668900
2.5745200
2.5714700
2.5775800
2.5775800
2.5806300
2.5791000
2.5745200
2.5745200
2.5714700
2.5699500
2.5745200
2.5730000
2.5699500
2.5745200
2.5821500
2.5806300
2.5791000
2.5791000
2.5760500
2.5760500
2.5745200
2.5730000
2.5775800
2.5730000
2.5745200
2.5775800
2.5775800
2.5760500
2.5745200
2.5653700
2.5699500
2.5730000
2.5775800
2.5791000
2.5806300
2.5760500
2.5775800
2.5791000
2.5745200
2.5745200
2.5745200
2.5775800
2.5775800
2.5791000
2.5775800
2.5730000
2.5699500
2.5653700
2.5745200
2.5714700
2.5668900
2.5607900
2.5577400
2.5577400
2.5668900
2.5668900
2.5623200
2.5821500
2.5882600
2.5791000
2.5821500
2.5882600
2.5791000
2.5791000
2.5760500
2.5760500
2.5745200
2.5760500
2.5791000
2.5745200
2.5760500
2.5760500
2.5730000
2.5668900
2.5730000
2.5760500
2.5791000
2.5745200
2.5668900
2.5607900
2.5623200
2.5623200
2.5577400
2.5607900
2.5821500
2.5806300
2.5730000
2.5745200
2.5806300
2.5760500
2.5745200
2.5760500
2.5775800
2.5775800
2.5760500
2.5730000
2.5730000
2.5745200
2.5775800
2.5730000
2.5745200
2.5745200
2.5760500
2.5791000
2.5806300
2.5775800
2.5791000
2.5775800
2.5760500
2.5760500
2.5760500
2.5806300
2.5760500
2.5775800
2.5775800
2.5836800
2.5791000
2.5760500
2.5760500
2.5730000
2.5745200
2.5775800
2.5821500
2.5745200
2.5760500
2.5668900
2.5745200
2.5730000
2.5730000
2.5760500
2.5745200
2.5760500
2.5714700
2.5745200
2.5775800
2.5714700
2.5730000
2.5775800
2.5775800
2.5775800
2.5760500
2.5730000
2.5730000
2.5699500
2.5730000
2.5714700
2.5668900
2.5714700
2.5760500
2.5775800
2.5806300
2.5730000
2.5791000
2.5760500
2.5791000
2.5760500
2.5745200
2.5806300
2.5775800
2.5745200
2.5745200
2.5745200
2.5699500
2.5760500
2.5745200
2.5760500
2.5745200
2.5745200
2.5730000
2.5745200
2.5730000
2.5730000
2.5745200
2.5668900
2.5714700
2.5699500
2.5714700
2.5699500
2.5653700
2.5638400
2.5653700
2.5714700
2.5668900
2.5730000
2.5745200
2.5668900
2.5638400
2.5638400
2.5577400
2.5623200
2.5638400
2.5623200
2.5607900
2.5745200
2.5745200
2.5653700
2.5638400
2.5668900
2.5760500
2.5760500
2.5730000
2.5730000
2.5806300
2.5775800
2.5760500
2.5699500
2.5638400
2.5653700
2.5623200
2.5653700
2.5730000
2.5791000
2.5821500
2.5836800
2.5791000
2.5745200
2.5760500
2.5806300
2.5806300
2.5821500
2.5836800
2.5836800
2.5806300
2.5745200
2.5775800
2.5745200
2.5745200
2.5775800
2.5806300
2.5775800
2.5775800
2.5806300
2.5760500
2.5775800
2.5806300
2.5791000
2.5791000
2.5806300
2.5760500
2.5760500
2.5791000
2.5760500
2.5760500
2.5745200
2.5745200
2.5760500
2.5730000
2.5668900
2.5760500
2.5760500
2.5791000
2.5714700
2.5699500
2.5791000
2.5836800
2.5714700
2.5714700
2.5668900
2.5668900
2.5730000
2.5775800
2.5791000
2.5745200
2.5775800
2.5760500
2.5821500
2.5806300
2.5775800
2.5760500
2.5791000
2.5852100
2.5836800
2.5836800
2.5806300
2.5806300
2.5791000
2.5791000
2.5775800
2.5760500
2.5730000
2.5821500
2.5882600
2.5958900
2.6004600
2.5974100
2.5897800
2.5882600
2.5882600
2.5836800
2.5852100
2.5806300
2.5760500
2.5730000
2.5714700
2.5699500
2.5730000
2.5760500
2.5730000
2.5760500
2.5730000
2.5806300
2.5836800
2.5867300
2.5882600
2.5897800
2.5821500
2.5867300
2.5852100
2.5821500
2.5775800
2.5806300
2.5806300
2.5745200
2.5760500
2.5775800
2.5821500
2.5775800
2.5791000
2.5806300
2.5806300
2.5821500
2.5806300
2.5852100
2.5821500
2.5775800
2.5760500
2.5745200
2.5806300
2.5821500
2.5821500
2.5821500
2.5821500
2.5821500
2.5836800
2.5852100
2.5852100
2.5836800
2.5882600
2.5852100
2.5852100
2.5806300
2.5791000
2.5791000
2.5806300
2.5836800
2.5821500
2.5836800
2.5852100
2.5836800
2.5791000
2.5806300
2.5791000
2.5791000
2.5791000
2.5836800
2.5791000
2.5821500
2.5821500
2.5791000
2.5775800
2.5821500
2.5791000
2.5699500
2.5714700
2.5653700
2.5638400
2.5653700
2.5760500
2.5791000
2.5852100
2.5852100
2.5836800
2.5806300
2.5760500
2.5836800
2.5806300
2.5806300
2.5867300
2.5897800
2.5882600
2.5836800
2.5852100
2.5852100
2.5836800
2.5836800
2.5806300
2.5806300
2.5836800
2.5821500
2.5836800
2.5775800
2.5775800
2.5836800
2.5836800
2.5882600
2.5836800
2.5836800
2.5821500
2.5791000
2.5821500
2.5836800
2.5821500
2.5836800
2.5821500
2.5852100
2.5836800
2.5836800
2.5867300
2.5867300
2.5806300
2.5867300
2.5882600
2.5791000
2.5730000
2.5668900
2.5714700
2.5760500
2.5806300
2.5882600
2.5974100
2.6004600
2.6004600
2.5928300
2.5775800
2.5714700
2.5760500
2.5867300
2.5821500
2.5714700
2.5653700
2.5775800
2.5760500
2.5791000
2.5836800
2.5852100
2.5821500
2.5836800
2.5882600
2.5882600
2.5882600
2.5836800
2.5882600
2.5836800
2.5867300
2.5867300
2.5791000
2.5791000
2.5836800
2.5821500
2.5821500
2.5852100
2.5806300
2.5821500
2.5791000
2.5836800
2.5821500
2.5852100
2.5806300
2.5775800
2.5760500
2.5806300
2.5806300
2.5775800
2.5821500
2.5791000
2.5775800
2.5791000
2.5791000
2.5775800
2.5760500
2.5806300
2.5806300
2.5791000
2.5745200
2.5791000
2.5775800
2.5775800
2.5775800
2.5775800
2.5714700
2.5806300
2.5791000
2.5806300
2.5836800
2.5852100
2.5806300
2.5791000
2.5821500
2.5806300
2.5836800
2.5775800
2.5775800
2.5760500
2.5836800
2.5791000
2.5806300
2.5791000
2.5791000
2.5836800
2.5806300
2.5821500
2.5806300
2.5806300
2.5806300
2.5867300
2.5806300
2.5791000
2.5760500
2.5775800
2.5775800
2.5806300
2.5745200
2.5714700
2.5775800
2.5730000
2.5745200
2.5714700
2.5714700
2.5668900
2.5714700
2.5730000
2.5836800
2.5745200
2.5714700
2.5775800
2.5836800
2.5882600
2.5867300
2.5821500
2.5791000
2.5791000
2.5821500
2.5836800
2.5867300
2.5867300
2.5852100
2.5836800
2.5867300
2.5882600
2.5852100
2.5867300
2.5852100
2.5806300
2.5836800
2.5775800
2.5760500
2.5714700
2.5730000
2.5760500
2.5775800
2.5821500
2.5745200
2.5775800
2.5791000
2.5836800
2.5821500
2.5821500
2.5806300
2.5836800
2.5882600
2.5928300
2.5897800
2.5882600
2.5867300
2.5852100
2.5867300
2.5806300
2.5745200
2.5760500
2.5821500
2.5791000
2.5852100
2.5867300
2.5836800
2.5821500
2.5775800
2.5791000
2.5775800
2.5745200
2.5699500
2.5668900
2.5653700
2.5638400
2.5653700
2.5699500
2.5638400
2.5623200
2.5623200
2.5592700
2.5745200
2.5806300
2.5821500
2.5806300
2.5882600
2.5882600
2.5821500
2.5821500
2.5806300
2.5760500
2.5775800
2.5867300
2.5821500
2.5821500
2.5821500
2.5836800
2.5806300
2.5821500
2.5791000
2.5791000
2.5760500
2.5791000
2.5821500
2.5791000
2.5852100
2.5852100
2.5867300
2.5852100
2.5836800
2.5836800
2.5882600
2.5852100
2.5852100
2.5867300
2.5791000
2.5806300
2.5760500
2.5836800
2.5867300
2.5913100
2.5852100
2.5852100
2.5836800
2.5852100
2.5913100
2.5943600
2.5913100
2.5897800
2.5928300
2.5897800
2.5943600
2.5882600
2.5913100
2.5928300
2.5928300
2.5913100
2.5897800
2.5867300
2.5882600
2.5897800
2.5882600
2.5897800
2.5897800
2.5913100
2.5897800
2.5958900
2.5928300
2.5943600
2.5913100
2.5867300
2.5836800
2.5882600
2.5882600
2.5882600
2.5913100
2.5897800
2.5943600
2.5913100
2.5897800
2.5897800
2.5897800
2.5913100
2.5867300
2.5913100
2.5867300
2.5852100
2.5928300
2.5958900
2.5897800
2.5867300
2.5821500
2.5852100
2.5806300
2.5943600
2.5928300
2.5897800
2.5897800
2.5913100
2.5897800
2.5928300
2.5974100
2.5928300
2.5958900
2.5928300
2.6019900
2.5974100
2.5958900
2.5958900
2.5958900
2.6004600
2.6019900
2.6065700
2.6065700
2.6050400
2.6035200
2.6035200
2.5974100
2.6004600
2.5958900
2.6004600
2.5974100
2.6035200
2.6004600
2.6004600
2.6004600
2.6019900
2.6019900
2.5958900
2.6019900
2.5974100
2.6019900
2.6004600
2.5974100
2.5974100
2.5928300
2.5928300
2.5943600
2.5974100
2.6035200
2.6004600
2.5974100
2.6050400
2.6050400
2.6035200
2.6035200
2.6035200
2.6004600
2.6019900
2.5958900
2.6035200
2.6019900
2.5974100
2.6035200
2.6080900
2.6035200
2.5974100
2.5958900
2.5943600
2.6019900
2.6035200
2.6019900
2.6080900
2.6004600
2.6035200
2.6019900
2.5958900
2.5974100
2.5974100
2.6004600
2.5943600
2.5897800
2.5958900
2.5974100
2.5943600
2.6004600
2.5974100
2.5974100
2.5974100
2.5974100
2.5913100
2.5943600
2.5974100
2.6004600
2.6019900
2.6004600
2.6019900
2.5974100
2.6065700
2.6004600
2.6019900
2.5974100
2.6004600
2.5958900
2.6004600
2.6035200
2.6096200
2.6035200
2.6035200
2.6019900
2.6004600
2.6035200
2.6004600
2.6019900
2.5974100
2.6019900
2.6019900
2.5974100
2.5943600
2.5943600
2.6019900
2.6019900
2.6004600
2.5958900
2.6004600
2.5974100
2.6035200
2.5958900
2.5974100
2.5974100
2.5928300
2.5913100
2.5897800
2.5852100
2.5867300
2.5852100
2.5882600
2.6004600
2.6004600
2.6035200
2.6004600
2.5928300
2.5913100
2.5882600
2.5913100
2.5943600
2.5943600
2.5974100
2.6035200
2.5974100
2.5974100
2.5974100
2.5974100
2.5974100
2.6035200
2.6004600
2.6019900
2.5974100
2.6004600
2.6080900
2.6004600
2.6019900
2.5974100
2.6004600
2.5958900
2.6035200
2.6004600
2.6004600
2.5974100
2.5943600
2.5958900
2.5958900
2.5974100
2.5943600
2.5974100
2.6004600
2.5974100
2.5943600
2.5943600
2.6004600
2.5974100
2.6004600
2.5974100
2.6004600
2.6004600
2.5974100
2.6019900
2.5958900
2.5897800
2.5897800
2.5867300
2.5913100
2.5958900
2.5958900
2.6080900
2.6019900
2.6019900
2.5928300
2.5913100
2.5852100
2.5836800
2.5943600
2.5928300
2.5943600
2.6035200
2.6019900
2.6050400
2.6050400
2.6065700
2.6035200
2.6004600
2.6004600
2.5928300
2.6004600
2.5958900
2.5974100
2.5974100
2.6004600
2.5974100
2.5974100
2.5958900
2.5958900
2.5928300
2.5852100
2.5836800
2.5867300
2.5943600
2.5928300
2.5943600
2.5882600
2.5897800
2.5958900
2.5958900
2.5958900
2.5943600
2.5928300
2.5943600
2.5943600
2.5958900
2.5897800
2.5897800
2.5897800
2.5928300
2.5943600
2.5974100
2.5958900
2.5943600
2.5913100
2.5913100
2.5943600
2.5928300
2.5913100
2.5928300
2.5928300
2.5913100
2.5943600
2.5897800
2.5882600
2.5882600
2.5882600
2.5867300
2.5928300
2.5958900
2.5958900
2.5928300
2.5943600
2.5928300
2.5928300
2.5867300
2.5913100
2.5913100
2.5882600
2.5913100
2.5913100
2.5897800
2.5913100
2.5897800
2.5821500
2.5806300
2.5806300
2.5882600
2.5882600
2.5867300
2.5897800
2.5928300
2.5928300
2.5867300
2.5882600
2.5867300
2.5867300
2.5867300
2.5882600
2.5928300
2.5913100
2.5913100
2.5913100
2.5913100
2.5867300
2.5867300
2.5913100
2.5913100
2.5821500
2.5867300
2.5806300
2.5775800
2.5775800
2.5760500
2.5730000
2.5714700
2.5760500
2.5852100
2.5928300
2.5913100
2.5928300
2.5897800
2.5897800
2.5852100
2.5821500
2.5913100
2.5974100
2.5867300
2.5897800
2.5867300
2.5852100
2.5836800
2.5821500
2.5852100
2.5852100
2.5852100
2.5821500
2.5821500
2.5806300
2.5821500
2.5806300
2.5836800
2.5821500
2.5836800
2.5836800
2.5821500
2.5836800
2.5760500
2.5791000
2.5775800
2.5791000
2.5791000
2.5836800
2.5821500
2.5760500
2.5836800
2.5806300
2.5821500
2.5775800
2.5821500
2.5806300
2.5791000
2.5806300
2.5821500
2.5775800
2.5760500
2.5791000
2.5791000
2.5791000
2.5760500
2.5806300
2.5760500
2.5806300
2.5775800
2.5760500
2.5760500
2.5745200
2.5775800
2.5760500
2.5745200
2.5714700
2.5730000
2.5745200
2.5775800
2.5791000
2.5821500
2.5760500
2.5760500
2.5775800
2.5775800
2.5775800
2.5730000
2.5760500
2.5745200
2.5775800
2.5775800
2.5775800
2.5745200
2.5745200
2.5760500
2.5745200
2.5730000
2.5745200
2.5730000
2.5714700
2.5745200
2.5714700
2.5730000
2.5699500
2.5714700
2.5714700
2.5699500
2.5745200
2.5668900
2.5714700
2.5699500
2.5714700
2.5714700
2.5699500
2.5638400
2.5638400
2.5653700
2.5730000
2.5730000
2.5699500
2.5699500
2.5653700
2.5668900
2.5623200
2.5699500
2.5653700
2.5668900
2.5638400
2.5653700
2.5623200
2.5607900
2.5577400
2.5638400
2.5623200
2.5653700
2.5653700
2.5623200
2.5592700
2.5592700
2.5623200
2.5577400
2.5623200
2.5577400
2.5607900
2.5592700
2.5623200
2.5607900
2.5638400
2.5592700
2.5623200
2.5623200
2.5592700
2.5562100
2.5562100
2.5562100
2.5592700
2.5577400
2.5607900
2.5592700
2.5577400
2.5562100
2.5577400
2.5562100
2.5562100
2.5546900
2.5546900
2.5546900
2.5562100
2.5562100
2.5501100
2.5501100
2.5546900
2.5562100
2.5531600
2.5546900
2.5531600
2.5562100
2.5562100
2.5607900
2.5562100
2.5546900
2.5501100
2.5546900
2.5531600
2.5501100
2.5577400
2.5531600
2.5546900
2.5516400
2.5531600
2.5516400
2.5546900
2.5485800
2.5516400
2.5546900
2.5485800
2.5501100
2.5531600
2.5501100
2.5485800
2.5531600
2.5485800
2.5485800
2.5424800
2.5440100
2.5440100
2.5394300
2.5424800
2.5394300
2.5470600
2.5516400
2.5531600
2.5501100
2.5485800
2.5531600
2.5531600
2.5485800
2.5516400
2.5516400
2.5501100
2.5455300
2.5485800
2.5455300
2.5440100
2.5470600
2.5424800
2.5440100
2.5440100
2.5455300
2.5409500
2.5363800
2.5318000
2.5318000
2.5333300
2.5363800
2.5348500
2.5363800
2.5455300
2.5440100
2.5501100
2.5455300
2.5455300
2.5409500
2.5424800
2.5440100
2.5440100
2.5440100
2.5455300
2.5424800
2.5363800
2.5424800
2.5409500
2.5394300
2.5318000
2.5287500
2.5302700
2.5272200
2.5318000
2.5318000
2.5302700
2.5318000
2.5470600
2.5485800
2.5455300
2.5363800
2.5409500
2.5409500
2.5409500
2.5409500
2.5363800
2.5348500
2.5348500
2.5333300
2.5348500
2.5409500
2.5333300
2.5318000
2.5302700
2.5348500
2.5318000
2.5257000
2.5226400
2.5333300
2.5333300
2.5257000
2.5241700
2.5195900
2.5241700
2.5211200
2.5226400
2.5211200
2.5257000
2.5348500
2.5348500
2.5302700
2.5333300
2.5333300
2.5318000
2.5318000
2.5257000
2.5257000
2.5287500
2.5241700
2.5241700
2.5241700
2.5241700
2.5180700
2.5241700
2.5257000
2.5226400
2.5195900
2.5180700
2.5180700
2.5195900
2.5134900
2.5119600
2.5165400
2.5287500
2.5318000
2.5257000
2.5287500
2.5226400
2.5195900
2.5195900
2.5226400
2.5195900
2.5226400
2.5195900
2.5257000
2.5226400
2.5195900
2.5165400
2.5150100
2.5104400
2.5089100
2.5104400
2.5043300
2.5028100
2.4936500
2.5104400
2.5241700
2.5272200
2.5104400
2.5073900
2.5012800
2.4997600
2.5012800
2.5028100
2.4997600
2.4997600
2.5272200
2.5470600
2.5302700
2.5150100
2.5134900
2.5104400
2.5104400
2.5119600
2.5104400
2.5119600
2.5089100
2.5119600
2.5089100
2.5104400
2.5073900
2.5089100
2.5012800
2.5073900
2.4997600
2.4967000
2.4967000
2.4936500
2.4860200
2.4906000
2.5195900
2.5226400
2.5150100
2.5073900
2.5073900
2.5073900
2.5043300
2.5028100
2.5043300
2.5028100
2.5043300
2.5089100
2.5043300
2.5073900
2.5073900
2.5089100
2.5043300
2.5028100
2.5012800
2.5028100
2.4997600
2.4967000
2.5012800
2.5012800
2.4967000
2.4967000
2.5012800
2.4997600
2.4982300
2.4967000
2.4982300
2.4967000
2.4967000
2.4982300
2.4997600
2.4997600
2.4982300
2.4997600
2.4982300
2.5012800
2.4936500
2.4936500
2.4936500
2.4997600
2.4967000
2.4936500
2.4921300
2.4921300
2.4906000
2.4890700
2.4906000
2.4875500
2.4906000
2.4921300
2.4890700
2.4890700
2.4906000
2.4875500
2.4860200
2.4875500
2.4845000
2.4875500
2.4845000
2.4829700
2.4845000
2.4890700
2.4845000
2.4906000
2.4845000
2.4845000
2.4829700
2.4829700
2.4845000
2.4860200
2.4845000
2.4845000
2.4845000
2.4860200
2.4845000
2.4829700
2.4845000
2.4829700
2.4845000
2.4829700
2.4814500
2.4829700
2.4829700
2.4814500
2.4783900
2.4738200
2.4661900
2.4631300
2.4600800
2.4814500
2.4799200
2.4799200
2.4814500
2.4890700
2.4921300
2.4890700
2.4875500
2.4860200
2.4845000
2.4829700
2.4890700
2.4860200
2.4860200
2.4829700
2.4814500
2.4845000
2.4799200
2.4814500
2.4829700
2.4829700
2.4783900
2.4814500
2.4799200
2.4814500
2.4783900
2.4799200
2.4814500
2.4768700
2.4783900
2.4814500
2.4799200
2.4768700
2.4799200
2.4799200
2.4799200
2.4768700
2.4738200
2.4768700
2.4783900
2.4768700
2.4722900
2.4707600
2.4707600
2.4768700
2.4738200
2.4768700
2.4722900
2.4738200
2.4707600
2.4738200
2.4707600
2.4707600
2.4661900
2.4677100
2.4677100
2.4707600
2.4783900
2.4722900
2.4707600
2.4722900
2.4692400
2.4692400
2.4677100
2.4661900
2.4677100
2.4722900
2.4692400
2.4707600
2.4692400
2.4646600
2.4661900
2.4677100
2.4616100
2.4661900
2.4600800
2.4616100
2.4616100
2.4646600
2.4646600
2.4692400
2.4661900
2.4677100
2.4677100
2.4646600
2.4677100
2.4585600
2.4616100
2.4616100
2.4600800
2.4631300
2.4570300
2.4585600
2.4600800
2.4616100
2.4616100
2.4631300
2.4570300
2.4585600
2.4585600
2.4555100
2.4616100
2.4570300
2.4631300
2.4616100
2.4600800
2.4661900
2.4661900
2.4631300
2.4646600
2.4616100
2.4616100
2.4616100
2.4631300
2.4570300
2.4616100
2.4616100
2.4585600
2.4600800
2.4585600
2.4600800
2.4600800
2.4631300
2.4570300
2.4600800
2.4570300
2.4555100
2.4585600
2.4585600
2.4600800
2.4585600
2.4585600
2.4555100
2.4539800
2.4539800
2.4494000
2.4494000
2.4509300
2.4616100
2.4585600
2.4570300
2.4555100
2.4570300
2.4524500
2.4570300
2.4555100
2.4539800
2.4509300
2.4539800
2.4524500
2.4555100
2.4524500
2.4478800
2.4463500
2.4494000
2.4494000
2.4478800
2.4509300
2.4494000
2.4494000
2.4478800
2.4509300
2.4463500
2.4433000
2.4433000
2.4433000
2.4433000
2.4402500
2.4371900
2.4387200
2.4402500
2.4433000
2.4478800
2.4417700
2.4417700
2.4402500
2.4402500
2.4417700
2.4417700
2.4433000
2.4433000
2.4417700
2.4387200
2.4371900
2.4371900
2.4341400
2.4326200
2.4326200
2.4463500
2.4463500
2.4417700
2.4387200
2.4402500
2.4387200
2.4387200
2.4341400
2.4433000
2.4371900
2.4387200
2.4341400
2.4433000
2.4402500
2.4371900
2.4356700
2.4371900
2.4371900
2.4356700
2.4356700
2.4326200
2.4310900
2.4356700
2.4341400
2.4341400
2.4371900
2.4341400
2.4341400
2.4371900
2.4326200
2.4387200
2.4310900
2.4310900
2.4326200
2.4356700
2.4326200
2.4371900
2.4310900
2.4341400
2.4341400
2.4341400
2.4341400
2.4371900
2.4310900
2.4310900
2.4310900
2.4326200
2.4310900
2.4295700
2.4310900
2.4265100
2.4326200
2.4310900
2.4326200
2.4310900
2.4265100
2.4295700
2.4280400
2.4265100
2.4219400
2.4295700
2.4280400
2.4280400
2.4265100
2.4249900
2.4219400
2.4265100
2.4234600
2.4265100
2.4295700
2.4280400
2.4265100
2.4249900
2.4280400
2.4280400
2.4265100
2.4249900
2.4265100
2.4265100
2.4249900
2.4280400
2.4249900
2.4249900
2.4234600
2.4280400
2.4234600
2.4280400
2.4234600
2.4234600
2.4249900
2.4265100
2.4234600
2.4234600
2.4249900
2.4219400
2.4204100
2.4204100
2.4219400
2.4204100
2.4204100
2.4204100
2.4234600
2.4219400
2.4188800
2.4219400
2.4143100
2.4204100
2.4188800
2.4234600
2.4204100
2.4173600
2.4112500
2.4173600
2.4143100
2.4143100
2.4143100
2.4112500
2.4143100
2.4204100
2.4295700
2.4280400
2.4204100
2.4234600
2.4265100
2.4188800
2.4188800
2.4158300
2.4204100
2.4219400
2.4234600
2.4188800
2.4173600
2.4173600
2.4158300
2.4204100
2.4173600
2.4204100
2.4188800
2.4173600
2.4143100
2.4112500
2.4097300
2.4097300
2.4066800
2.4066800
2.4143100
2.4112500
2.4158300
2.4066800
2.4082000
2.4234600
2.4219400
2.4173600
2.4173600
2.4219400
2.4219400
2.4204100
2.4173600
2.4204100
2.4112500
2.4173600
2.4158300
2.4204100
2.4188800
2.4143100
2.4082000
2.4143100
2.4158300
2.4143100
2.4188800
2.4143100
2.4158300
2.4143100
2.4143100
2.4097300
2.4097300
2.4066800
2.4051500
2.4082000
2.4005700
2.4021000
2.4051500
2.4082000
2.4082000
2.4082000
2.4021000
2.4021000
2.3975200
2.3960000
2.4005700
2.4051500
2.4021000
2.4005700
2.4097300
2.4173600
2.4219400
2.4173600
2.4158300
2.4082000
2.4097300
2.4097300
2.4051500
2.4082000
2.4051500
2.4066800
2.4066800
2.4066800
2.4082000
2.4066800
2.3990500
2.4036300
2.4036300
2.4051500
2.4051500
2.4021000
2.4005700
2.4036300
2.4021000
2.4005700
2.4021000
2.4005700
2.3990500
2.3975200
2.4036300
2.4005700
2.4005700
2.3975200
2.3990500
2.4021000
2.3990500
2.4021000
2.3975200
2.3975200
2.4021000
2.4051500
2.3990500
2.3975200
2.3944700
2.3975200
2.3975200
2.4021000
2.4021000
2.4036300
2.3990500
2.3960000
2.4005700
2.3990500
2.3975200
2.3929400
2.3990500
2.3944700
2.3960000
2.3975200
2.3990500
2.3975200
2.3960000
2.3975200
2.3960000
2.4005700
2.3960000
2.3990500
2.3975200
2.4005700
2.4005700
2.3990500
2.3975200
2.3960000
2.3960000
2.3944700
2.3975200
2.3960000
2.3944700
2.3960000
2.3975200
2.3944700
2.3990500
2.3944700
2.3960000
2.3960000
2.3975200
2.3960000
2.3975200
2.3975200
2.3975200
2.4036300
2.4021000
2.4005700
2.3944700
2.3990500
2.3990500
2.3990500
2.3990500
2.4005700
2.4005700
2.3975200
2.3975200
2.3960000
2.3929400
2.3914200
2.3914200
2.3914200
2.3898900
2.3914200
2.3929400
2.3898900
2.3914200
2.3944700
2.3944700
2.3944700
2.3929400
2.3914200
2.3898900
2.3944700
2.3883700
2.3914200
2.3853100
2.3868400
2.3914200
2.3929400
2.3944700
2.3929400
2.3914200
2.3898900
2.3929400
2.3914200
2.3898900
2.3914200
2.3914200
2.3914200
2.3914200
2.3929400
2.3944700
2.3929400
2.3929400
2.3944700
2.3883700
2.3914200
2.3898900
2.3883700
2.3883700
2.3960000
2.3929400
2.3944700
2.3944700
2.3898900
2.3883700
2.3898900
2.3898900
2.3868400
2.3898900
2.3898900
2.3914200
2.3929400
2.3944700
2.3929400
2.3929400
2.3944700
2.3898900
2.3914200
2.3868400
2.3868400
2.3898900
2.3914200
2.3883700
2.3853100
2.3807400
2.3853100
2.3807400
2.3776900
2.3776900
2.3776900
2.3807400
2.3731100
2.3746300
2.3746300
2.3883700
2.3975200
2.3898900
2.3868400
2.3837900
2.3853100
2.3883700
2.3898900
2.3898900
2.3960000
2.3883700
2.3914200
2.3853100
2.3868400
2.3837900
2.3883700
2.3944700
2.3929400
2.3898900
2.3898900
2.3853100
2.3914200
2.3929400
2.3898900
2.3929400
2.3898900
2.3944700
2.3929400
2.3898900
2.3929400
2.3898900
2.3929400
2.3914200
2.3944700
2.3883700
2.3914200
2.3914200
2.3990500
2.3944700
2.3914200
2.3914200
2.3929400
2.3944700
2.3914200
2.3929400
2.3898900
2.3898900
2.3914200
2.3944700
2.3944700
2.3898900
2.3898900
2.3883700
2.3883700
2.3914200
2.3929400
2.3868400
2.3914200
2.3883700
2.3944700
2.3898900
2.3898900
2.3868400
2.3883700
2.3929400
2.3914200
2.3914200
2.3898900
2.3914200
2.3868400
2.3883700
2.3914200
2.3898900
2.3898900
2.3929400
2.3898900
2.3898900
2.3914200
2.3898900
2.3914200
2.3914200
2.3929400
2.3944700
2.3929400
2.3868400
2.3898900
2.3853100
2.3898900
2.3914200
2.3883700
2.3853100
2.3868400
2.3883700
2.3883700
2.3960000
2.3914200
2.3883700
2.3883700
2.3914200
2.3883700
2.3868400
2.3837900
2.3837900
2.3883700
2.3868400
2.3868400
2.3868400
2.3837900
2.3776900
2.3715800
2.3670000
2.3746300
2.3761600
2.3776900
2.3792100
2.3898900
2.4036300
2.4051500
2.3975200
2.3914200
2.3914200
2.3914200
2.3929400
2.3883700
2.3883700
2.3868400
2.3914200
2.3883700
2.3898900
2.3929400
2.3914200
2.3883700
2.3868400
2.3883700
2.3837900
2.3837900
2.3837900
2.3868400
2.3837900
2.3776900
2.3731100
2.3761600
2.3807400
2.3883700
2.3929400
2.3929400
2.3929400
2.3898900
2.3929400
2.3868400
2.3853100
2.3807400
2.3853100
2.3929400
2.3914200
2.3914200
2.3868400
2.3837900
2.3868400
2.3944700
2.3853100
2.3868400
2.3837900
2.3853100
2.3837900
2.3868400
2.3853100
2.3807400
2.3837900
2.3776900
2.3761600
2.3868400
2.3868400
2.3837900
2.3853100
2.3868400
2.3914200
2.3868400
2.3837900
2.3792100
2.3807400
2.3792100
2.3776900
2.3776900
2.3715800
2.3761600
2.3837900
2.3883700
2.3883700
2.3929400
2.3960000
2.3975200
2.3960000
2.3929400
2.3929400
2.3929400
2.3868400
2.3868400
2.3898900
2.3898900
2.3883700
2.3853100
2.3792100
2.3792100
2.3731100
2.3792100
2.3731100
2.3761600
2.3853100
2.3975200
2.3898900
2.3883700
2.3837900
2.3837900
2.3807400
2.3868400
2.3837900
2.3883700
2.3807400
2.3761600
2.3853100
2.3883700
2.3792100
2.3944700
2.4005700
2.3975200
2.3975200
2.3883700
2.3868400
2.3853100
2.3868400
2.3837900
2.3853100
2.3883700
2.3853100
2.3914200
2.3898900
2.3929400
2.3883700
2.3868400
2.3792100
2.3853100
2.3853100
2.3868400
2.3883700
2.3883700
2.3853100
2.3883700
2.3868400
2.3868400
2.3898900
2.3837900
2.3853100
2.3868400
2.3853100
2.3868400
2.3807400
2.3807400
2.3883700
2.3944700
2.3883700
2.3883700
2.3883700
2.3868400
2.3868400
2.3898900
2.3837900
2.3837900
2.3792100
2.3746300
2.3715800
2.3776900
2.3792100
2.3746300
2.3761600
2.3792100
2.3853100
2.3898900
2.3990500
2.3914200
2.3898900
2.3883700
2.3837900
2.3898900
2.3868400
2.3883700
2.3883700
2.3898900
2.3883700
2.3929400
2.3883700
2.3944700
2.3944700
2.3898900
2.3914200
2.3914200
2.3944700
2.3929400
2.3944700
2.3883700
2.3929400
2.3868400
2.3853100
2.3853100
2.3868400
2.3807400
2.3868400
2.3914200
2.3883700
2.3898900
2.3868400
2.3883700
2.3837900
2.3853100
2.3883700
2.3898900
2.3898900
2.3883700
2.3914200
2.3883700
2.3868400
2.3868400
2.3929400
2.3853100
2.3898900
2.3853100
2.3868400
2.3883700
2.3883700
2.3883700
2.3868400
2.3883700
2.3837900
2.3883700
2.3837900
2.3883700
2.3868400
2.3914200
2.3914200
2.3898900
2.3883700
2.3898900
2.3914200
2.3898900
2.3914200
2.3898900
2.3883700
2.3868400
2.3868400
2.3883700
2.3929400
2.3883700
2.3914200
2.3929400
2.3898900
2.3898900
2.3883700
2.3914200
2.3898900
2.3960000
2.3898900
2.3914200
2.3898900
2.3898900
2.3883700
2.3914200
2.3898900
2.3929400
2.3929400
2.3914200
2.3914200
2.3914200
2.3914200
2.3929400
2.3944700
2.3944700
2.3975200
2.3960000
2.3929400
2.3944700
2.3929400
2.3944700
2.3929400
2.3944700
2.3914200
2.3944700
2.3929400
2.3960000
2.3944700
2.3944700
2.3929400
2.3914200
2.3929400
2.3944700
2.3960000
2.3975200
2.3929400
2.3929400
2.3975200
2.3960000
2.3975200
2.3944700
2.3944700
2.3975200
2.3975200
2.3975200
2.3975200
2.3960000
2.3975200
2.3990500
2.3990500
2.3944700
2.3944700
2.3975200
2.3990500
2.3990500
2.3975200
2.3960000
2.3990500
2.3944700
2.3929400
2.3975200
2.3990500
2.3944700
2.3929400
2.3960000
2.3929400
2.3929400
2.3960000
2.3929400
2.3914200
2.3929400
2.3929400
2.3944700
2.3929400
2.3914200
2.3960000
2.3990500
2.3975200
2.3960000
2.3914200
2.3944700
2.3975200
2.3960000
2.3960000
2.4021000
2.3944700
2.3944700
2.3975200
2.3944700
2.3960000
2.3929400
2.3944700
2.3975200
2.3960000
2.4005700
2.3975200
2.3960000
2.3960000
2.4005700
2.3990500
2.4021000
2.3975200
2.3975200
2.3975200
2.4021000
2.4036300
2.4066800
2.4051500
2.4021000
2.3990500
2.4021000
2.4021000
2.3990500
2.4021000
2.4036300
2.4036300
2.4005700
2.4036300
2.3990500
2.4005700
2.4005700
2.4005700
2.4051500
2.4021000
2.3990500
2.4021000
2.4021000
2.4051500
2.4021000
2.3990500
2.4021000
2.4066800
2.4036300
2.4066800
2.4112500
2.4082000
2.4082000
2.4082000
2.4051500
2.4097300
2.4082000
2.4082000
2.4066800
2.4066800
2.4097300
2.4097300
2.4097300
2.4112500
2.4112500
2.4097300
2.4097300
2.4051500
2.4097300
2.4097300
2.4143100
2.4082000
2.4112500
2.4066800
2.4097300
2.4051500
2.4143100
2.4143100
2.4097300
2.4097300
2.4097300
2.4112500
2.4112500
2.4097300
2.4112500
2.4112500
2.4143100
2.4112500
2.4143100
2.4082000
2.4066800
2.4082000
2.4158300
2.4112500
2.4112500
2.4082000
2.4097300
2.4112500
2.4097300
2.4143100
2.4143100
2.4112500
2.4097300
2.4143100
2.4143100
2.4112500
2.4112500
2.4158300
2.4173600
2.4158300
2.4188800
2.4173600
2.4158300
2.4143100
2.4188800
2.4173600
2.4143100
2.4143100
2.4112500
2.4173600
2.4188800
2.4173600
2.4188800
2.4173600
2.4158300
2.4158300
2.4173600
2.4173600
2.4158300
2.4173600
2.4112500
2.4143100
2.4112500
2.4112500
2.4082000
2.4112500
2.4112500
2.4112500
2.4112500
2.4082000
2.4112500
2.4097300
2.4158300
2.4112500
2.4097300
2.4082000
2.4097300
2.4143100
2.4097300
2.4173600
2.4173600
2.4143100
2.4097300
2.4158300
2.4188800
2.4173600
2.4143100
2.4082000
2.4082000
2.4112500
2.4112500
2.4082000
2.4082000
2.4036300
2.4036300
2.4021000
2.4097300
2.4112500
2.4112500
2.4143100
2.4173600
2.4188800
2.4265100
2.4234600
2.4188800
2.4173600
2.4249900
2.4234600
2.4204100
2.4188800
2.4158300
2.4204100
2.4234600
2.4188800
2.4188800
2.4173600
2.4158300
2.4143100
2.4143100
2.4112500
2.4097300
2.4173600
2.4204100
2.4188800
2.4265100
2.4249900
2.4234600
2.4204100
2.4234600
2.4234600
2.4265100
2.4204100
2.4219400
2.4265100
2.4219400
2.4265100
2.4204100
2.4234600
2.4204100
2.4204100
2.4219400
2.4219400
2.4219400
2.4234600
2.4234600
2.4204100
2.4204100
2.4173600
2.4204100
2.4188800
2.4234600
2.4204100
2.4173600
2.4158300
2.4188800
2.4143100
2.4249900
2.4234600
2.4188800
2.4188800
2.4219400
2.4173600
2.4204100
2.4219400
2.4204100
2.4204100
2.4204100
2.4188800
2.4188800
2.4158300
2.4219400
2.4204100
2.4219400
2.4219400
2.4219400
2.4173600
2.4204100
2.4234600
2.4249900
2.4265100
2.4265100
2.4219400
2.4234600
2.4249900
2.4204100
2.4219400
2.4188800
2.4219400
2.4219400
2.4234600
2.4249900
2.4249900
2.4219400
2.4188800
2.4219400
2.4219400
2.4219400
2.4234600
2.4219400
2.4234600
2.4234600
2.4234600
2.4219400
2.4249900
2.4234600
2.4204100
2.4249900
2.4234600
2.4219400
2.4219400
2.4219400
2.4219400
2.4188800
2.4188800
2.4188800
2.4188800
2.4219400
2.4219400
2.4219400
2.4204100
2.4219400
2.4234600
2.4249900
2.4234600
2.4234600
2.4204100
2.4188800
2.4234600
2.4234600
2.4249900
2.4249900
2.4234600
2.4188800
2.4219400
2.4219400
2.4249900
2.4234600
2.4219400
2.4188800
2.4249900
2.4204100
2.4219400
2.4234600
2.4234600
2.4234600
2.4265100
2.4219400
2.4204100
2.4219400
2.4234600
2.4188800
2.4204100
2.4204100
2.4204100
2.4219400
2.4188800
2.4219400
2.4204100
2.4158300
2.4188800
2.4204100
2.4219400
2.4219400
2.4249900
2.4158300
2.4112500
2.4143100
2.4158300
2.4158300
2.4112500
2.4173600
2.4188800
2.4219400
2.4204100
2.4219400
2.4188800
2.4219400
2.4219400
2.4219400
2.4204100
2.4234600
2.4204100
2.4173600
2.4188800
2.4188800
2.4219400
2.4158300
2.4173600
2.4173600
2.4234600
2.4204100
2.4188800
2.4188800
2.4173600
2.4188800
2.4204100
2.4158300
2.4173600
2.4188800
2.4204100
2.4219400
2.4173600
2.4188800
2.4188800
2.4204100
2.4158300
2.4188800
2.4204100
2.4204100
2.4234600
2.4234600
2.4265100
2.4219400
2.4234600
2.4204100
2.4219400
2.4219400
2.4249900
2.4234600
2.4204100
2.4234600
2.4219400
2.4234600
2.4280400
2.4219400
2.4219400
2.4234600
2.4234600
2.4249900
2.4280400
2.4249900
2.4219400
2.4234600
2.4249900
2.4249900
2.4265100
2.4188800
2.4234600
2.4249900
2.4249900
2.4249900
2.4204100
2.4249900
2.4265100
2.4265100
2.4234600
2.4265100
2.4204100
2.4249900
2.4265100
2.4295700
2.4265100
2.4249900
2.4265100
2.4249900
2.4219400
2.4280400
2.4310900
2.4265100
2.4265100
2.4265100
2.4265100
2.4234600
2.4265100
2.4249900
2.4234600
2.4234600
2.4219400
2.4265100
2.4173600
2.4219400
2.4188800
2.4219400
2.4234600
2.4234600
2.4173600
2.4234600
2.4234600
2.4280400
2.4310900
2.4280400
2.4265100
2.4234600
2.4280400
2.4249900
2.4265100
2.4265100
2.4234600
2.4234600
2.4295700
2.4295700
2.4249900
2.4295700
2.4249900
2.4295700
2.4234600
2.4265100
2.4234600
2.4280400
2.4295700
2.4326200
2.4326200
2.4280400
2.4280400
2.4265100
2.4265100
2.4295700
2.4326200
2.4265100
2.4295700
2.4310900
2.4295700
2.4341400
2.4310900
2.4295700
2.4310900
2.4326200
2.4310900
2.4310900
2.4295700
2.4265100
2.4249900
2.4280400
2.4280400
2.4219400
2.4204100
2.4219400
2.4249900
2.4295700
2.4310900
2.4326200
2.4295700
2.4265100
2.4295700
2.4280400
2.4249900
2.4234600
2.4280400
2.4295700
2.4341400
2.4356700
2.4356700
2.4341400
2.4326200
2.4326200
2.4280400
2.4310900
2.4249900
2.4280400
2.4265100
2.4341400
2.4310900
2.4295700
2.4326200
2.4280400
2.4295700
2.4371900
2.4371900
2.4341400
2.4326200
2.4295700
2.4326200
2.4341400
2.4356700
2.4310900
2.4341400
2.4326200
2.4341400
2.4341400
2.4326200
2.4341400
2.4310900
2.4371900
2.4326200
2.4326200
2.4310900
2.4295700
2.4295700
2.4326200
2.4371900
2.4326200
2.4341400
2.4310900
2.4341400
2.4326200
2.4310900
2.4265100
2.4295700
2.4295700
2.4356700
2.4402500
2.4356700
2.4371900
2.4356700
2.4356700
2.4310900
2.4341400
2.4280400
2.4341400
2.4310900
2.4341400
2.4341400
2.4356700
2.4310900
2.4326200
2.4295700
2.4326200
2.4326200
2.4295700
2.4310900
2.4295700
2.4280400
2.4310900
2.4326200
2.4280400
2.4295700
2.4310900
2.4310900
2.4326200
2.4280400
2.4310900
2.4295700
2.4310900
2.4310900
2.4310900
2.4265100
2.4265100
2.4295700
2.4341400
2.4310900
2.4326200
2.4265100
2.4295700
2.4295700
2.4265100
2.4280400
2.4249900
2.4265100
2.4265100
2.4295700
2.4326200
2.4310900
2.4310900
2.4310900
2.4295700
2.4280400
2.4295700
2.4265100
2.4295700
2.4295700
2.4326200
2.4326200
2.4326200
2.4326200
2.4295700
2.4295700
2.4310900
2.4341400
2.4326200
2.4341400
2.4326200
2.4326200
2.4310900
2.4295700
2.4280400
2.4265100
2.4280400
2.4295700
2.4310900
2.4326200
2.4326200
2.4295700
2.4326200
2.4356700
2.4371900
2.4310900
2.4265100
2.4265100
2.4280400
2.4265100
2.4341400
2.4341400
2.4387200
2.4356700
2.4341400
2.4356700
2.4326200
2.4341400
2.4341400
2.4341400
2.4387200
2.4356700
2.4341400
2.4341400
2.4371900
2.4356700
2.4356700
2.4310900
2.4341400
2.4295700
2.4310900
2.4295700
2.4295700
2.4310900
2.4265100
2.4265100
2.4326200
2.4280400
2.4265100
2.4280400
2.4265100
2.4310900
2.4310900
2.4326200
2.4310900
2.4295700
2.4310900
2.4295700
2.4295700
2.4280400
2.4295700
2.4295700
2.4356700
2.4310900
2.4341400
2.4310900
2.4356700
2.4310900
2.4295700
2.4341400
2.4341400
2.4326200
2.4326200
2.4356700
2.4310900
2.4341400
2.4280400
2.4326200
2.4295700
2.4356700
2.4341400
2.4341400
2.4310900
2.4280400
2.4341400
2.4326200
2.4326200
2.4280400
2.4280400
2.4280400
2.4326200
2.4295700
2.4295700
2.4280400
2.4280400
2.4295700
2.4310900
2.4371900
2.4295700
2.4295700
2.4265100
2.4280400
2.4280400
2.4310900
2.4249900
2.4295700
2.4295700
2.4295700
2.4326200
2.4310900
2.4310900
2.4295700
2.4326200
2.4326200
2.4356700
2.4295700
2.4310900
2.4326200
2.4310900
2.4371900
2.4387200
2.4326200
2.4326200
2.4356700
2.4356700
2.4371900
2.4310900
2.4326200
2.4326200
2.4341400
2.4326200
2.4310900
2.4280400
2.4280400
2.4310900
2.4326200
2.4326200
2.4310900
2.4341400
2.4341400
2.4402500
2.4310900
2.4356700
2.4326200
2.4326200
2.4310900
2.4341400
2.4295700
2.4265100
2.4280400
2.4280400
2.4341400
2.4310900
2.4341400
2.4295700
2.4371900
2.4371900
2.4371900
2.4341400
2.4371900
2.4371900
2.4371900
2.4371900
2.4387200
2.4356700
2.4356700
2.4371900
2.4341400
2.4341400
2.4356700
2.4433000
2.4356700
2.4326200
2.4326200
2.4326200
2.4326200
2.4356700
2.4356700
2.4356700
2.4463500
2.4417700
2.4387200
2.4356700
2.4371900
2.4387200
2.4387200
2.4371900
2.4310900
2.4371900
2.4341400
2.4371900
2.4341400
2.4356700
2.4356700
2.4326200
2.4326200
2.4371900
2.4387200
2.4387200
2.4341400
2.4356700
2.4387200
2.4356700
2.4387200
2.4356700
2.4341400
2.4387200
2.4387200
2.4417700
2.4371900
2.4356700
2.4341400
2.4402500
2.4387200
2.4356700
2.4310900
2.4356700
2.4371900
2.4341400
2.4371900
2.4356700
2.4371900
2.4326200
2.4341400
2.4326200
2.4371900
2.4356700
2.4402500
2.4402500
2.4387200
2.4356700
2.4371900
2.4356700
2.4326200
2.4326200
2.4326200
2.4341400
2.4310900
2.4295700
2.4341400
2.4356700
2.4310900
2.4341400
2.4326200
2.4326200
2.4295700
2.4326200
2.4356700
2.4341400
2.4310900
2.4265100
2.4326200
2.4356700
2.4402500
2.4356700
2.4356700
2.4326200
2.4326200
2.4341400
2.4341400
2.4356700
2.4341400
2.4356700
2.4341400
2.4371900
2.4295700
2.4326200
2.4295700
2.4326200
2.4310900
2.4356700
2.4265100
2.4295700
2.4295700
2.4295700
2.4310900
2.4326200
2.4341400
2.4310900
2.4341400
2.4356700
2.4341400
2.4295700
2.4341400
2.4341400
2.4326200
2.4341400
2.4326200
2.4326200
2.4326200
2.4356700
2.4356700
2.4371900
2.4341400
2.4295700
2.4310900
2.4356700
2.4371900
2.4326200
2.4341400
2.4356700
2.4387200
2.4356700
2.4371900
2.4326200
2.4326200
2.4371900
2.4387200
2.4356700
2.4326200
2.4356700
2.4326200
2.4356700
2.4356700
2.4341400
2.4310900
2.4341400
2.4280400
2.4326200
2.4341400
2.4356700
2.4310900
2.4265100
2.4310900
2.4249900
2.4326200
2.4295700
2.4295700
2.4280400
2.4402500
2.4494000
2.4417700
2.4402500
2.4356700
2.4402500
2.4402500
2.4417700
2.4341400
2.4371900
2.4387200
2.4402500
2.4356700
2.4371900
2.4341400
2.4371900
2.4341400
2.4341400
2.4356700
2.4341400
2.4356700
2.4356700
2.4341400
2.4326200
2.4341400
2.4280400
2.4295700
2.4310900
2.4326200
2.4326200
2.4326200
2.4341400
2.4341400
2.4356700
2.4326200
2.4341400
2.4310900
2.4341400
2.4326200
2.4326200
2.4371900
2.4356700
2.4341400
2.4310900
2.4341400
2.4326200
2.4341400
2.4295700
2.4326200
2.4310900
2.4356700
2.4326200
2.4356700
2.4326200
2.4341400
2.4341400
2.4310900
2.4341400
2.4280400
2.4341400
2.4295700
2.4310900
2.4341400
2.4310900
2.4310900
2.4326200
2.4295700
2.4295700
2.4326200
2.4310900
2.4310900
2.4326200
2.4265100
2.4280400
2.4295700
2.4249900
2.4265100
2.4234600
2.4295700
2.4265100
2.4265100
2.4249900
2.4310900
2.4371900
2.4341400
2.4310900
2.4326200
2.4310900
2.4295700
2.4310900
2.4310900
2.4310900
2.4219400
2.4249900
2.4265100
2.4280400
2.4280400
2.4265100
2.4280400
2.4249900
2.4295700
2.4326200
2.4310900
2.4295700
2.4310900
2.4371900
2.4341400
2.4341400
2.4295700
2.4295700
2.4326200
2.4326200
2.4341400
2.4326200
2.4280400
2.4295700
2.4280400
2.4326200
2.4310900
2.4295700
2.4280400
2.4265100
2.4234600
2.4265100
2.4265100
2.4219400
2.4204100
2.4219400
2.4265100
2.4295700
2.4265100
2.4234600
2.4265100
2.4295700
2.4280400
2.4265100
2.4249900
2.4249900
2.4249900
2.4249900
2.4280400
2.4310900
2.4265100
2.4265100
2.4265100
2.4280400
2.4295700
2.4234600
2.4265100
2.4234600
2.4265100
2.4249900
2.4249900
2.4219400
2.4219400
2.4234600
2.4295700
2.4356700
2.4295700
2.4295700
2.4265100
2.4310900
2.4326200
2.4295700
2.4295700
2.4295700
2.4265100
2.4326200
2.4326200
2.4265100
2.4295700
2.4295700
2.4265100
2.4310900
2.4295700
2.4265100
2.4265100
2.4280400
2.4295700
2.4295700
2.4265100
2.4280400
2.4234600
2.4280400
2.4265100
2.4265100
2.4265100
2.4280400
2.4234600
2.4249900
2.4280400
2.4295700
2.4249900
2.4249900
2.4249900
2.4234600
2.4280400
2.4234600
2.4280400
2.4249900
2.4265100
2.4265100
2.4280400
2.4219400
2.4234600
2.4249900
2.4265100
2.4280400
2.4265100
2.4280400
2.4249900
2.4295700
2.4295700
2.4310900
2.4326200
2.4310900
2.4280400
2.4310900
2.4310900
2.4295700
2.4295700
2.4295700
2.4326200
2.4310900
2.4341400
2.4310900
2.4280400
2.4310900
2.4295700
2.4280400
2.4234600
2.4219400
2.4219400
2.4234600
2.4204100
2.4158300
2.4219400
2.4326200
2.4341400
2.4341400
2.4295700
2.4310900
2.4295700
2.4310900
2.4326200
2.4295700
2.4310900
2.4249900
2.4280400
2.4295700
2.4326200
2.4280400
2.4310900
2.4280400
2.4265100
2.4280400
2.4234600
2.4249900
2.4234600
2.4249900
2.4280400
2.4310900
2.4265100
2.4295700
2.4310900
2.4295700
2.4280400
2.4326200
2.4310900
2.4295700
2.4295700
2.4265100
2.4280400
2.4295700
2.4326200
2.4295700
2.4310900
2.4295700
2.4265100
2.4326200
2.4310900
2.4280400
2.4280400
2.4310900
2.4310900
2.4310900
2.4265100
2.4280400
2.4310900
2.4310900
2.4356700
2.4356700
2.4249900
2.4280400
2.4341400
2.4295700
2.4310900
2.4265100
2.4310900
2.4280400
2.4326200
2.4310900
2.4295700
2.4295700
2.4326200
2.4326200
2.4295700
2.4326200
2.4310900
2.4326200
2.4326200
2.4341400
2.4310900
2.4326200
2.4295700
2.4310900
2.4265100
2.4295700
2.4341400
2.4310900
2.4326200
2.4310900
2.4310900
2.4310900
2.4265100
2.4234600
2.4234600
2.4204100
2.4219400
2.4249900
2.4188800
2.4219400
2.4341400
2.4341400
2.4310900
2.4310900
2.4310900
2.4341400
2.4310900
2.4295700
2.4356700
2.4356700
2.4295700
2.4326200
2.4310900
2.4265100
2.4326200
2.4280400
2.4280400
2.4265100
2.4310900
2.4295700
2.4295700
2.4295700
2.4249900
2.4295700
2.4280400
2.4280400
2.4249900
2.4234600
2.4219400
2.4234600
2.4173600
2.4173600
2.4204100
2.4173600
2.4158300
2.4341400
2.4371900
2.4280400
2.4265100
2.4265100
2.4280400
2.4280400
2.4280400
2.4249900
2.4249900
2.4265100
2.4265100
2.4295700
2.4219400
2.4265100
2.4249900
2.4295700
2.4295700
2.4295700
2.4249900
2.4234600
2.4249900
2.4280400
2.4341400
2.4341400
2.4295700
2.4280400
2.4326200
2.4234600
2.4265100
2.4249900
2.4265100
2.4280400
2.4265100
2.4280400
2.4234600
2.4219400
2.4188800
2.4310900
2.4310900
2.4341400
2.4295700
2.4295700
2.4280400
2.4295700
2.4265100
2.4265100
2.4249900
2.4249900
2.4219400
2.4310900
2.4265100
2.4280400
2.4280400
2.4280400
2.4295700
2.4295700
2.4265100
2.4234600
2.4295700
2.4280400
2.4295700
2.4341400
2.4310900
2.4280400
2.4249900
2.4249900
2.4265100
2.4265100
2.4219400
2.4249900
2.4234600
2.4219400
2.4234600
2.4234600
2.4204100
2.4204100
2.4265100
2.4219400
2.4295700
2.4265100
2.4295700
2.4265100
2.4295700
2.4310900
2.4326200
2.4295700
2.4280400
2.4265100
2.4265100
2.4310900
2.4295700
2.4265100
2.4310900
2.4326200
2.4310900
2.4295700
2.4310900
2.4265100
2.4249900
2.4295700
2.4295700
2.4249900
2.4265100
2.4249900
2.4280400
2.4249900
2.4280400
2.4249900
2.4280400
2.4295700
2.4310900
2.4295700
2.4295700
2.4265100
2.4249900
2.4280400
2.4249900
2.4234600
2.4143100
2.4188800
2.4188800
2.4204100
2.4219400
2.4234600
2.4234600
2.4310900
2.4326200
2.4219400
2.4265100
2.4265100
2.4295700
2.4265100
2.4280400
2.4265100
2.4265100
2.4234600
2.4249900
2.4249900
2.4265100
2.4280400
2.4265100
2.4249900
2.4249900
2.4265100
2.4249900
2.4249900
2.4249900
2.4265100
2.4234600
2.4326200
2.4295700
2.4234600
2.4249900
2.4265100
2.4265100
2.4265100
2.4265100
2.4265100
2.4249900
2.4249900
2.4219400
2.4265100
2.4234600
2.4204100
2.4219400
2.4234600
2.4219400
2.4249900
2.4204100
2.4234600
2.4204100
2.4204100
2.4188800
2.4249900
2.4204100
2.4188800
2.4249900
2.4234600
2.4265100
2.4143100
2.4219400
2.4173600
2.4234600
2.4219400
2.4234600
2.4219400
2.4219400
2.4234600
2.4219400
2.4234600
2.4219400
2.4204100
2.4188800
2.4204100
2.4188800
2.4188800
2.4219400
2.4188800
2.4143100
2.4204100
2.4204100
2.4188800
2.4219400
2.4204100
2.4188800
2.4188800
2.4204100
2.4173600
2.4173600
2.4188800
2.4204100
2.4204100
2.4204100
2.4204100
2.4143100
2.4188800
2.4173600
2.4173600
2.4112500
2.4143100
2.4143100
2.4173600
2.4219400
2.4173600
2.4173600
2.4173600
2.4219400
2.4188800
2.4204100
2.4188800
2.4188800
2.4188800
2.4204100
2.4204100
2.4204100
2.4158300
2.4158300
2.4173600
2.4204100
2.4219400
2.4188800
2.4204100
2.4188800
2.4219400
2.4219400
2.4219400
2.4219400
2.4234600
2.4188800
2.4219400
2.4234600
2.4204100
2.4219400
2.4204100
2.4188800
2.4158300
2.4173600
2.4143100
2.4097300
2.4143100
2.4143100
2.4143100
2.4219400
2.4265100
2.4249900
2.4249900
2.4234600
2.4234600
2.4188800
2.4219400
2.4234600
2.4219400
2.4219400
2.4265100
2.4204100
2.4234600
2.4234600
2.4249900
2.4204100
2.4188800
2.4219400
2.4188800
2.4249900
2.4219400
2.4234600
2.4204100
2.4204100
2.4265100
2.4249900
2.4249900
2.4249900
2.4234600
2.4280400
2.4295700
2.4204100
2.4310900
2.4295700
2.4204100
2.4188800
2.4234600
2.4234600
2.4265100
2.4234600
2.4234600
2.4249900
2.4234600
2.4234600
2.4188800
2.4173600
2.4158300
2.4112500
2.4143100
2.4143100
2.4158300
2.4112500
2.4173600
2.4234600
2.4234600
2.4234600
2.4265100
2.4219400
2.4204100
2.4249900
2.4295700
2.4234600
2.4204100
2.4234600
2.4219400
2.4219400
2.4234600
2.4234600
2.4234600
2.4280400
2.4249900
2.4234600
2.4219400
2.4219400
2.4234600
2.4219400
2.4234600
2.4204100
2.4188800
2.4219400
2.4249900
2.4219400
2.4265100
2.4219400
2.4204100
2.4219400
2.4234600
2.4234600
2.4219400
2.4219400
2.4234600
2.4249900
2.4204100
2.4234600
2.4204100
2.4204100
2.4204100
2.4234600
2.4249900
2.4188800
2.4219400
2.4204100
2.4204100
2.4204100
2.4219400
2.4173600
2.4173600
2.4219400
2.4204100
2.4249900
2.4265100
2.4204100
2.4219400
2.4249900
2.4234600
2.4219400
2.4188800
2.4204100
2.4173600
2.4204100
2.4188800
2.4143100
2.4112500
2.4112500
2.4112500
2.4112500
2.4234600
2.4204100
2.4204100
2.4234600
2.4280400
2.4249900
2.4234600
2.4219400
2.4188800
2.4158300
2.4234600
2.4204100
2.4188800
2.4204100
2.4188800
2.4188800
2.4188800
2.4219400
2.4234600
2.4234600
2.4204100
2.4219400
2.4234600
2.4234600
2.4219400
2.4204100
2.4249900
2.4204100
2.4219400
2.4188800
2.4188800
2.4204100
2.4173600
2.4249900
2.4265100
2.4219400
2.4204100
2.4219400
2.4188800
2.4234600
2.4219400
2.4173600
2.4188800
2.4219400
2.4204100
2.4188800
2.4188800
2.4173600
2.4219400
2.4173600
2.4188800
2.4188800
2.4173600
2.4204100
2.4219400
2.4204100
2.4173600
2.4158300
2.4173600
2.4158300
2.4204100
2.4204100
2.4158300
2.4173600
2.4158300
2.4158300
2.4173600
2.4158300
2.4158300
2.4143100
2.4158300
2.4173600
2.4143100
2.4082000
2.4097300
2.4188800
2.4219400
2.4219400
2.4204100
2.4143100
2.4158300
2.4188800
2.4204100
2.4219400
2.4204100
2.4158300
2.4173600
2.4204100
2.4158300
2.4173600
2.4143100
2.4158300
2.4143100
2.4173600
2.4112500
2.4173600
2.4158300
2.4143100
2.4173600
2.4143100
2.4204100
2.4188800
2.4173600
2.4188800
2.4234600
2.4204100
2.4219400
2.4112500
2.4158300
2.4188800
2.4173600
2.4188800
2.4188800
2.4188800
2.4158300
2.4158300
2.4158300
2.4158300
2.4112500
2.4097300
2.4112500
2.4112500
2.4158300
2.4143100
2.4158300
2.4158300
2.4143100
2.4188800
2.4143100
2.4158300
2.4112500
2.4112500
2.4112500
2.4112500
2.4188800
2.4143100
2.4082000
2.4097300
2.4188800
2.4204100
2.4158300
2.4204100
2.4158300
2.4204100
2.4173600
2.4158300
2.4143100
2.4143100
2.4173600
2.4173600
2.4188800
2.4112500
2.4112500
2.4173600
2.4188800
2.4188800
2.4219400
2.4219400
2.4188800
2.4158300
2.4158300
2.4173600
2.4143100
2.4112500
2.4143100
2.4112500
2.4173600
2.4158300
2.4112500
2.4097300
2.4066800
2.4082000
2.4066800
2.4066800
2.4112500
2.4082000
2.4188800
2.4219400
2.4143100
2.4143100
2.4112500
2.4112500
2.4173600
2.4158300
2.4234600
2.4173600
2.4204100
2.4234600
2.4204100
2.4219400
2.4158300
2.4188800
2.4143100
2.4188800
2.4188800
2.4158300
2.4158300
2.4112500
2.4173600
2.4112500
2.4188800
2.4158300
2.4143100
2.4158300
2.4204100
2.4173600
2.4158300
2.4173600
2.4143100
2.4143100
2.4112500
2.4173600
2.4097300
2.4097300
2.4082000
2.4082000
2.4112500
2.4097300
2.4082000
2.4097300
2.4066800
2.4066800
2.4051500
2.4097300
2.4158300
2.4112500
2.4082000
2.4097300
2.4097300
2.4021000
2.4066800
2.4097300
2.4097300
2.4158300
2.4143100
2.4097300
2.4097300
2.4112500
2.4097300
2.4158300
2.4112500
2.4097300
2.4112500
2.4097300
2.4143100
2.4082000
2.4112500
2.4173600
2.4097300
2.4082000
2.4143100
2.4112500
2.4112500
2.4112500
2.4173600
2.4188800
2.4173600
2.4173600
2.4173600
2.4097300
2.4173600
2.4188800
2.4112500
2.4158300
2.4143100
2.4158300
2.4143100
2.4158300
2.4158300
2.4112500
2.4097300
2.4112500
2.4143100
2.4143100
2.4158300
2.4112500
2.4158300
2.4158300
2.4188800
2.4143100
2.4143100
2.4173600
2.4143100
2.4158300
2.4188800
2.4097300
2.4158300
2.4173600
2.4158300
2.4204100
2.4158300
2.4188800
2.4082000
2.4143100
2.4143100
2.4097300
2.4143100
2.4082000
2.4097300
2.4112500
2.4112500
2.4112500
2.4112500
2.4112500
2.4158300
2.4173600
2.4173600
2.4158300
2.4158300
2.4112500
2.4173600
2.4143100
2.4097300
2.4097300
2.4097300
2.4143100
2.4082000
2.4143100
2.4097300
2.4066800
2.4112500
2.4158300
2.4158300
2.4112500
2.4097300
2.4082000
2.4143100
2.4097300
2.4143100
2.4097300
2.4112500
2.4173600
2.4143100
2.4173600
2.4188800
2.4158300
2.4143100
2.4188800
2.4112500
2.4188800
2.4143100
2.4158300
2.4188800
2.4204100
2.4173600
2.4112500
2.4143100
2.4082000
2.4112500
2.4097300
2.4173600
2.4112500
2.4173600
2.4173600
2.4204100
2.4158300
2.4158300
2.4158300
2.4158300
2.4112500
2.4158300
2.4158300
2.4143100
2.4143100
2.4112500
2.4112500
2.4082000
2.4158300
2.4066800
2.4112500
2.4112500
2.4143100
2.4143100
2.4097300
2.4112500
2.4112500
2.4158300
2.4143100
2.4143100
2.4097300
2.4112500
2.4143100
2.4143100
2.4158300
2.4173600
2.4112500
2.4112500
2.4158300
2.4112500
2.4143100
2.4143100
2.4112500
2.4143100
2.4173600
2.4173600
2.4158300
2.4143100
2.4112500
2.4173600
2.4173600
2.4173600
2.4143100
2.4143100
2.4158300
2.4173600
2.4112500
2.4173600
2.4158300
2.4112500
2.4066800
2.4097300
2.4066800
2.4051500
2.4036300
2.4005700
2.4021000
2.4005700
2.4066800
2.4143100
2.4204100
2.4204100
2.4219400
2.4249900
2.4188800
2.4158300
2.4143100
2.4158300
2.4158300
2.4158300
2.4143100
2.4112500
2.4143100
2.4097300
2.4143100
2.4158300
2.4112500
2.4097300
2.4173600
2.4082000
2.4158300
2.4112500
2.4097300
2.4082000
2.4082000
2.4097300
2.4082000
2.4097300
2.4112500
2.4143100
2.4082000
2.4143100
2.4097300
2.4112500
2.4097300
2.4143100
2.4112500
2.4051500
2.4082000
2.4051500
2.4021000
2.4051500
2.4066800
2.4051500
2.4066800
2.4066800
2.4082000
2.4082000
2.4066800
2.4036300
2.4082000
2.4082000
2.4097300
2.4082000
2.4066800
2.4066800
2.4051500
2.4082000
2.4051500
2.4082000
2.4051500
2.4097300
2.4082000
2.4082000
2.4112500
2.4143100
2.4097300
2.4082000
2.4143100
2.4112500
2.4112500
2.4097300
2.4112500
2.4112500
2.4143100
2.4112500
2.4158300
2.4112500
2.4097300
2.4158300
2.4097300
2.4066800
2.4066800
2.4036300
2.4036300
2.4036300
2.4021000
2.4097300
2.4158300
2.4097300
2.4082000
2.4143100
2.4112500
2.4082000
2.4066800
2.4066800
2.4112500
2.4112500
2.4112500
2.4066800
2.4097300
2.4082000
2.4051500
2.4082000
2.4082000
2.4066800
2.4036300
2.4051500
2.4066800
2.4051500
2.4051500
2.4066800
2.4097300
2.4036300
2.4097300
2.4097300
2.4066800
2.4082000
2.4051500
2.4021000
2.4051500
2.4021000
2.4051500
2.4036300
2.4066800
2.4097300
2.4097300
2.4066800
2.4051500
2.4066800
2.4082000
2.4066800
2.4021000
2.4097300
2.4051500
2.4066800
2.4066800
2.4066800
2.4097300
2.4036300
2.4021000
2.4082000
2.4066800
2.4036300
2.4051500
2.4021000
2.4005700
2.4021000
2.4021000
2.3990500
2.3990500
2.3990500
2.4005700
2.4021000
2.4036300
2.3990500
2.3990500
2.4097300
2.4112500
2.4066800
2.3990500
2.4082000
2.4082000
2.4097300
2.4097300
2.4066800
2.4051500
2.4066800
2.4097300
2.4066800
2.4051500
2.4036300
2.4021000
2.4051500
2.4066800
2.4066800
2.4066800
2.4066800
2.4036300
2.4066800
2.4021000
2.4051500
2.4021000
2.4036300
2.4021000
2.4066800
2.4005700
2.3990500
2.4036300
2.4036300
2.4005700
2.4036300
2.4036300
2.4021000
2.4036300
2.4005700
2.4051500
2.4005700
2.4021000
2.4036300
2.4021000
2.4005700
2.4005700
2.4036300
2.4005700
2.4021000
2.4066800
2.4082000
2.4082000
2.4051500
2.4036300
2.4036300
2.4036300
2.4021000
2.4051500
2.4021000
2.3990500
2.4021000
2.4051500
2.3990500
2.4051500
2.4036300
2.4066800
2.4036300
2.4082000
2.4066800
2.4051500
2.4051500
2.4005700
2.4036300
2.4021000
2.4036300
2.4021000
2.4021000
2.4005700
2.4021000
2.4021000
2.4097300
2.4097300
2.4051500
2.4036300
2.4066800
2.4051500
2.4051500
2.4005700
2.4021000
2.4066800
2.4036300
2.4036300
2.4005700
2.4005700
2.4005700
2.3990500
2.4005700
2.4005700
2.3975200
2.4005700
2.3990500
2.4036300
2.4021000
2.4005700
2.4036300
2.4021000
2.4021000
2.4021000
2.4066800
2.3960000
2.4005700
2.4066800
2.4036300
2.4036300
2.3990500
2.4036300
2.4036300
2.4036300
2.4021000
2.4021000
2.4005700
2.4005700
2.4021000
2.4021000
2.4036300
2.3960000
2.3990500
2.3990500
2.4005700
2.3975200
2.4005700
2.3960000
2.3960000
2.3929400
2.4021000
2.3990500
2.3975200
2.3990500
2.3944700
2.4005700
2.4066800
2.4066800
2.4005700
2.4021000
2.4005700
2.3990500
2.3990500
2.3990500
2.4005700
2.4005700
2.4021000
2.3960000
2.3990500
2.3975200
2.3960000
2.3960000
2.3944700
2.4051500
2.4005700
2.3990500
2.3990500
2.3960000
2.3975200
2.4021000
2.3990500
2.3990500
2.3990500
2.4021000
2.4021000
2.4005700
2.4021000
2.3960000
2.3960000
2.3975200
2.4021000
2.3990500
2.3960000
2.3975200
2.4005700
2.3990500
2.3975200
2.3960000
2.3960000
2.3975200
2.3990500
2.4005700
2.4005700
2.4036300
2.4021000
2.3975200
2.3990500
2.4005700
2.3944700
2.3990500
2.3990500
2.3990500
2.4005700
2.3990500
2.3975200
2.3960000
2.3990500
2.3990500
2.3975200
2.3929400
2.3975200
2.3960000
2.3960000
2.3990500
2.3990500
2.3960000
2.3960000
2.4005700
2.4021000
2.4021000
2.3990500
2.3990500
2.4021000
2.3990500
2.4036300
2.3975200
2.3990500
2.3944700
2.3975200
2.3975200
2.4005700
2.3944700
2.3944700
2.3960000
2.3960000
2.3960000
2.3975200
2.3975200
2.3960000
2.3929400
2.3990500
2.4021000
2.3944700
2.3975200
2.3960000
2.3960000
2.4005700
2.4005700
2.3960000
2.3929400
2.3929400
2.3929400
2.3929400
2.3929400
2.3944700
2.3990500
2.4005700
2.4036300
2.3990500
2.3944700
2.3975200
2.3960000
2.3975200
2.3975200
2.4021000
2.3975200
2.3944700
2.3990500
2.3944700
2.4005700
2.3975200
2.3990500
2.3960000
2.3975200
2.3944700
2.3960000
2.3975200
2.3975200
2.3990500
2.3960000
2.3975200
2.3914200
2.3960000
2.3975200
2.4005700
2.3960000
2.3929400
2.3960000
2.3929400
2.3868400
2.3944700
2.3960000
2.3929400
2.3929400
2.3883700
2.3914200
2.3898900
2.3898900
2.3883700
2.3883700
2.3914200
2.3868400
2.3914200
2.3929400
2.3898900
2.3898900
2.3914200
2.3898900
2.3868400
2.3883700
2.3883700
2.3883700
2.3883700
2.3914200
2.3929400
2.3883700
2.3883700
2.3898900
2.3914200
2.3929400
2.3914200
2.3929400
2.3898900
2.3944700
2.3914200
2.3914200
2.3914200
2.3898900
2.3898900
2.3868400
2.3914200
2.3868400
2.3868400
2.3883700
2.3837900
2.3898900
2.3914200
2.3898900
2.3853100
2.3868400
2.3883700
2.3929400
2.3914200
2.3914200
2.3883700
2.3883700
2.3914200
2.3883700
2.3868400
2.3868400
2.3868400
2.3898900
2.3914200
2.3914200
2.3914200
2.3898900
2.3883700
2.3914200
2.3914200
2.3883700
2.3868400
2.3883700
2.3883700
2.3883700
2.3944700
2.3898900
2.3883700
2.3883700
2.3898900
2.3914200
2.3868400
2.3883700
2.3868400
2.3944700
2.3898900
2.3868400
2.3853100
2.3837900
2.3883700
2.3853100
2.3837900
2.3853100
2.3837900
2.3883700
2.3944700
2.3898900
2.3944700
2.3914200
2.3914200
2.3883700
2.3914200
2.3914200
2.3914200
2.3929400
2.3898900
2.3929400
2.3914200
2.3883700
2.3898900
2.3898900
2.3914200
2.3960000
2.3960000
2.3944700
2.3944700
2.3914200
2.3944700
2.3898900
2.3929400
2.3898900
2.3914200
2.3914200
2.3914200
2.3914200
2.3929400
2.3898900
2.3868400
2.3914200
2.3898900
2.3914200
2.3868400
2.3898900
2.3898900
2.3914200
2.3944700
2.3914200
2.3898900
2.3929400
2.3929400
2.3898900
2.3898900
2.3883700
2.3898900
2.3914200
2.3914200
2.3883700
2.3898900
2.3883700
2.3868400
2.3837900
2.3868400
2.3868400
2.3883700
2.3883700
2.3929400
2.3898900
2.3898900
2.3898900
2.3868400
2.3853100
2.3883700
2.3914200
2.3929400
2.3898900
2.3898900
2.3898900
2.3944700
2.3929400
2.3898900
2.3898900
2.3883700
2.3883700
2.3853100
2.3853100
2.3868400
2.3776900
2.3776900
2.3914200
2.3898900
2.3914200
2.3883700
2.3898900
2.3883700
2.3898900
2.3868400
2.3868400
2.3883700
2.3868400
2.3914200
2.3883700
2.3914200
2.3853100
2.3868400
2.3883700
2.3883700
2.3898900
2.3883700
2.3837900
2.3853100
2.3853100
2.3914200
2.3914200
2.3868400
2.3807400
2.3837900
2.3807400
2.3807400
2.3898900
2.3868400
2.3898900
2.3883700
2.3883700
2.3898900
2.3914200
2.3898900
2.3868400
2.3914200
2.3914200
2.3853100
2.3853100
2.3853100
2.3883700
2.3868400
2.3868400
2.3898900
2.3807400
2.3868400
2.3868400
2.3853100
2.3868400
2.3868400
2.3883700
2.3898900
2.3914200
2.3914200
2.3898900
2.3898900
2.3883700
2.3883700
2.3868400
2.3914200
2.3868400
2.3868400
2.3837900
2.3868400
2.3837900
2.3853100
2.3837900
2.3837900
2.3807400
2.3914200
2.3929400
2.3898900
2.3929400
2.3898900
2.3914200
2.3883700
2.3898900
2.3898900
2.3868400
2.3883700
2.3868400
2.3898900
2.3883700
2.3898900
2.3914200
2.3929400
2.3868400
2.3883700
2.3868400
2.3853100
2.3853100
2.3883700
2.3929400
2.3944700
2.3868400
2.3868400
2.3853100
2.3837900
2.3853100
2.3853100
2.3898900
2.3868400
2.3898900
2.3898900
2.3868400
2.3868400
2.3853100
2.3929400
2.3929400
2.3929400
2.3883700
2.3853100
2.3868400
2.3914200
2.3868400
2.3914200
2.3898900
2.3914200
2.3883700
2.3898900
2.3898900
2.3853100
2.3868400
2.3868400
2.3883700
2.3898900
2.3883700
2.3868400
2.3853100
2.3898900
2.3868400
2.3898900
2.3853100
2.3853100
2.3883700
2.3883700
2.3914200
2.3898900
2.3868400
2.3868400
2.3853100
2.3853100
2.3853100
2.3898900
2.3853100
2.3837900
2.3898900
2.3883700
2.3898900
2.3898900
2.3853100
2.3837900
2.3837900
2.3868400
2.3898900
2.3898900
2.3929400
2.3883700
2.3914200
2.3914200
2.3883700
2.3898900
2.3868400
2.3929400
2.3914200
2.3898900
2.3898900
2.3883700
2.3853100
2.3898900
2.3898900
2.3883700
2.3898900
2.3883700
2.3914200
2.3883700
2.3898900
2.3868400
2.3883700
2.3868400
2.3807400
2.3898900
2.3853100
2.3868400
2.3837900
2.3868400
2.3868400
2.3837900
2.3807400
2.3807400
2.3837900
2.3868400
2.3883700
2.3883700
2.3868400
2.3898900
2.3914200
2.3883700
2.3898900
2.3868400
2.3883700
2.3868400
2.3929400
2.3898900
2.3898900
2.3898900
2.3883700
2.3898900
2.3898900
2.3898900
2.3914200
2.3898900
2.3868400
2.3914200
2.3883700
2.3883700
2.3837900
2.3853100
2.3853100
2.3914200
2.3898900
2.3837900
2.3883700
2.3868400
2.3868400
2.3868400
2.3898900
2.3883700
2.3853100
2.3883700
2.3898900
2.3883700
2.3898900
2.3883700
2.3868400
2.3883700
2.3898900
2.3868400
2.3837900
2.3853100
2.3868400
2.3853100
2.3898900
2.3914200
2.3807400
2.3807400
2.3868400
2.3807400
2.3853100
2.3807400
2.3853100
2.3837900
2.3868400
2.3929400
2.3929400
2.3898900
2.3868400
2.3883700
2.3883700
2.3853100
2.3837900
2.3853100
2.3807400
2.3807400
2.3792100
2.3853100
2.3792100
2.3837900
2.3868400
2.3914200
2.3898900
2.3837900
2.3868400
2.3868400
2.3868400
2.3868400
2.3898900
2.3853100
2.3853100
2.3883700
2.3868400
2.3853100
2.3776900
2.3837900
2.3807400
2.3944700
2.3929400
2.3883700
2.3868400
2.3868400
2.3883700
2.3837900
2.3868400
2.3868400
2.3853100
2.3792100
2.3883700
2.3853100
2.3868400
2.3837900
2.3898900
2.3929400
2.3944700
2.3929400
2.3883700
2.3898900
2.3914200
2.3898900
2.3883700
2.3914200
2.3883700
2.3914200
2.3898900
2.3914200
2.3914200
2.3883700
2.3929400
2.3929400
2.3883700
2.3868400
2.3883700
2.3868400
2.3807400
2.3853100
2.3868400
2.3837900
2.3914200
2.3975200
2.3944700
2.3929400
2.3960000
2.3898900
2.3883700
2.3898900
2.3914200
2.3914200
2.3883700
2.3883700
2.3837900
2.3853100
2.3929400
2.3914200
2.3914200
2.3960000
2.3914200
2.3898900
2.3898900
2.3883700
2.3898900
2.3898900
2.3883700
2.3883700
2.3853100
2.3898900
2.3868400
2.3853100
2.3898900
2.3898900
2.3898900
2.3929400
2.3898900
2.3929400
2.3898900
2.3914200
2.3944700
2.3944700
2.3929400
2.3914200
2.3898900
2.3914200
2.3914200
2.3868400
2.3898900
2.3853100
2.3883700
2.3868400
2.3853100
2.3807400
2.3837900
2.3898900
2.3898900
2.3883700
2.3807400
2.3944700
2.3990500
2.4005700
2.3944700
2.3914200
2.3914200
2.3883700
2.3883700
2.3898900
2.3914200
2.3944700
2.3914200
2.3853100
2.3914200
2.3883700
2.3883700
2.3837900
2.3853100
2.3853100
2.3883700
2.3914200
2.3898900
2.3898900
2.3898900
2.3929400
2.3883700
2.3883700
2.3868400
2.3914200
2.3898900
2.3929400
2.3929400
2.3898900
2.3868400
2.3898900
2.3868400
2.3883700
2.3898900
2.3868400
2.3868400
2.3914200
2.3898900
2.3883700
2.3898900
2.3898900
2.3914200
2.3898900
2.3868400
2.3914200
2.3868400
2.3868400
2.3868400
2.3929400
2.3898900
2.3898900
2.3853100
2.3868400
2.3898900
2.3898900
2.3914200
2.3929400
2.3868400
2.3883700
2.3914200
2.3898900
2.3944700
2.3898900
2.3944700
2.3929400
2.3898900
2.3898900
2.3868400
2.3853100
2.3853100
2.3883700
2.3868400
2.3929400
2.3960000
2.3929400
2.3960000
2.3975200
2.3960000
2.3960000
2.3944700
2.3929400
2.3898900
2.3929400
2.3929400
2.3898900
2.3914200
2.3944700
2.3944700
2.3914200
2.3929400
2.3898900
2.3883700
2.3914200
2.3914200
2.3944700
2.3883700
2.3944700
2.3898900
2.3929400
2.3914200
2.3914200
2.3776900
2.3807400
2.3868400
2.3868400
2.3914200
2.3929400
2.3914200
2.3914200
2.3975200
2.3975200
2.3960000
2.3883700
2.3898900
2.3929400
2.3960000
2.3960000
2.3914200
2.3960000
2.3944700
2.3990500
2.3883700
2.3914200
2.3898900
2.3914200
2.3929400
2.3944700
2.3960000
2.3975200
2.3960000
2.3944700
2.3929400
2.3944700
2.3990500
2.3898900
2.3944700
2.3960000
2.4005700
2.3960000
2.3914200
2.3883700
2.3929400
2.3929400
2.3898900
2.3914200
2.3898900
2.3929400
2.3944700
2.3944700
2.3960000
2.3944700
2.3898900
2.3914200
2.3883700
2.3868400
2.3883700
2.3914200
2.3898900
2.3914200
2.3944700
2.3944700
2.3914200
2.3883700
2.3898900
2.3883700
2.3898900
2.3914200
2.3868400
2.3883700
2.3898900
2.3944700
2.3914200
2.3929400
2.3883700
2.3914200
2.3898900
2.3944700
2.3929400
2.3914200
2.3898900
2.3914200
2.3929400
2.3898900
2.3914200
2.3868400
2.3898900
2.3883700
2.3929400
2.3898900
2.3868400
2.3853100
2.3868400
2.3868400
2.3883700
2.3883700
2.3837900
2.3914200
2.3898900
2.3929400
2.3898900
2.3868400
2.3837900
2.3883700
2.3898900
2.3883700
2.3929400
2.3883700
2.3853100
2.3883700
2.3898900
2.3853100
2.3868400
2.3807400
2.3837900
2.3837900
2.3807400
2.3853100
2.3883700
2.3853100
2.3837900
2.3868400
2.3868400
2.3898900
2.3853100
2.3853100
2.3853100
2.3853100
2.3837900
2.3837900
2.3837900
2.3807400
2.3837900
2.3898900
2.3868400
2.3868400
2.3807400
2.3807400
2.3898900
2.3868400
2.3883700
2.3914200
2.3868400
2.3868400
2.3883700
2.3883700
2.3837900
2.3853100
2.3883700
2.3853100
2.3853100
2.3807400
2.3792100
2.3792100
2.3868400
2.3868400
2.3868400
2.3868400
2.3868400
2.3914200
2.3929400
2.3898900
2.3898900
2.3868400
2.3883700
2.3853100
2.3868400
2.3883700
2.3898900
2.3898900
2.3914200
2.3944700
2.3898900
2.3868400
2.3853100
2.3807400
2.3837900
2.3868400
2.3853100
2.3868400
2.3868400
2.3868400
2.3883700
2.3914200
2.3898900
2.3853100
2.3868400
2.3868400
2.3853100
2.3868400
2.3837900
2.3853100
2.3807400
2.3837900
2.3868400
2.3868400
2.3837900
2.3837900
2.3792100
2.3807400
2.3792100
2.3837900
2.3807400
2.3792100
2.3883700
2.3868400
2.3868400
2.3868400
2.3807400
2.3837900
2.3868400
2.3853100
2.3853100
2.3776900
2.3853100
2.3837900
2.3837900
2.3853100
2.3837900
2.3837900
2.3853100
2.3883700
2.3868400
2.3837900
2.3746300
2.3807400
2.3883700
2.3929400
2.3883700
2.3837900
2.3883700
2.3837900
2.3807400
2.3883700
2.3883700
2.3868400
2.3868400
2.3837900
2.3853100
2.3853100
2.3853100
2.3837900
2.3807400
2.3837900
2.3837900
2.3853100
2.3776900
2.3837900
2.3883700
2.3868400
2.3868400
2.3792100
2.3792100
2.3792100
2.3868400
2.3792100
2.3868400
2.3853100
2.3868400
2.3868400
2.3853100
2.3853100
2.3853100
2.3837900
2.3853100
2.3837900
2.3837900
2.3837900
2.3807400
2.3807400
2.3853100
2.3883700
2.3837900
2.3853100
2.3792100
2.3853100
2.3868400
2.3898900
2.3883700
2.3853100
2.3853100
2.3837900
2.3837900
2.3868400
2.3853100
2.3837900
2.3837900
2.3837900
2.3837900
2.3868400
2.3807400
2.3837900
2.3837900
2.3853100
2.3837900
2.3853100
2.3807400
2.3837900
2.3792100
2.3883700
2.3868400
2.3807400
2.3792100
2.3807400
2.3792100
2.3776900
2.3837900
2.3868400
2.3837900
2.3868400
2.3853100
2.3837900
2.3868400
2.3807400
2.3853100
2.3883700
2.3868400
2.3883700
2.3853100
2.3853100
2.3837900
2.3883700
2.3792100
2.3776900
2.3776900
2.3868400
2.3898900
2.3944700
2.3914200
2.3914200
2.3883700
2.3868400
2.3868400
2.3898900
2.3883700
2.3868400
2.3868400
2.3898900
2.3898900
2.3898900
2.3898900
2.3883700
2.3853100
2.3868400
2.3837900
2.3868400
2.3807400
2.3868400
2.3837900
2.3868400
2.3853100
2.3837900
2.3792100
2.3807400
2.3837900
2.3776900
2.3837900
2.3898900
2.3868400
2.3837900
2.3868400
2.3792100
2.3807400
2.3761600
2.3776900
2.3807400
2.3807400
2.3868400
2.3837900
2.3761600
2.3746300
2.3807400
2.3776900
2.3853100
2.3792100
2.3792100
2.3883700
2.3960000
2.3914200
2.3883700
2.3868400
2.3837900
2.3853100
2.3853100
2.3853100
2.3807400
2.3837900
2.3807400
2.3792100
2.3837900
2.3807400
2.3837900
2.3776900
2.3792100
2.3807400
2.3868400
2.3776900
2.3776900
2.3792100
2.3853100
2.3868400
2.3837900
2.3837900
2.3807400
2.3837900
2.3853100
2.3868400
2.3883700
2.3868400
2.3853100
2.3837900
2.3837900
2.3868400
2.3853100
2.3883700
2.3853100
2.3837900
2.3853100
2.3837900
2.3853100
2.3807400
2.3868400
2.3807400
2.3853100
2.3853100
2.3837900
2.3792100
2.3807400
2.3761600
2.3807400
2.3853100
2.3776900
2.3792100
2.3792100
2.3853100
2.3807400
2.3807400
2.3807400
2.3837900
2.3807400
2.3807400
2.3837900
2.3837900
2.3807400
2.3792100
2.3807400
2.3776900
2.3807400
2.3837900
2.3853100
2.3807400
2.3776900
2.3807400
2.3792100
2.3776900
2.3761600
2.3792100
2.3776900
2.3792100
2.3746300
2.3761600
2.3746300
2.3807400
2.3731100
2.3746300
2.3746300
2.3746300
2.3807400
2.3761600
2.3837900
2.3868400
2.3883700
2.3837900
2.3868400
2.3898900
2.3868400
2.3883700
2.3883700
2.3853100
2.3883700
2.3868400
2.3807400
2.3807400
2.3853100
2.3807400
2.3776900
2.3776900
2.3807400
2.3807400
2.3807400
2.3807400
2.3807400
2.3792100
2.3792100
2.3776900
2.3792100
2.3761600
2.3776900
2.3776900
2.3792100
2.3837900
2.3807400
2.3776900
2.3761600
2.3761600
2.3761600
2.3792100
2.3761600
2.3776900
2.3776900
2.3807400
2.3807400
2.3792100
2.3746300
2.3837900
2.3883700
2.3853100
2.3868400
2.3837900
2.3853100
2.3807400
2.3807400
2.3837900
2.3792100
2.3792100
2.3807400
2.3807400
2.3776900
2.3746300
2.3746300
2.3746300
2.3792100
2.3776900
2.3807400
2.3807400
2.3792100
2.3792100
2.3776900
2.3746300
2.3731100
2.3776900
2.3792100
2.3837900
2.3837900
2.3807400
2.3837900
2.3761600
2.3792100
2.3746300
2.3807400
2.3792100
2.3807400
2.3776900
2.3746300
2.3761600
2.3731100
2.3731100
2.3700600
2.3746300
2.3761600
2.3792100
2.3807400
2.3792100
2.3776900
2.3761600
2.3792100
2.3807400
2.3807400
2.3776900
2.3761600
2.3776900
2.3807400
2.3776900
2.3776900
2.3761600
2.3746300
2.3761600
2.3746300
2.3761600
2.3776900
2.3837900
2.3776900
2.3792100
2.3776900
2.3807400
2.3792100
2.3761600
2.3761600
2.3807400
2.3792100
2.3792100
2.3792100
2.3761600
2.3792100
2.3746300
2.3776900
2.3685300
2.3776900
2.3792100
2.3792100
2.3761600
2.3746300
2.3731100
2.3731100
2.3731100
2.3731100
2.3776900
2.3761600
2.3761600
2.3761600
2.3746300
2.3776900
2.3746300
2.3715800
2.3746300
2.3761600
2.3731100
2.3761600
2.3746300
2.3731100
2.3746300
2.3746300
2.3761600
2.3746300
2.3761600
2.3792100
2.3807400
2.3807400
2.3807400
2.3792100
2.3776900
2.3776900
2.3853100
2.3776900
2.3776900
2.3746300
2.3746300
2.3807400
2.3837900
2.3792100
2.3731100
2.3746300
2.3746300
2.3731100
2.3715800
2.3761600
2.3731100
2.3731100
2.3776900
2.3792100
2.3776900
2.3761600
2.3792100
2.3731100
2.3731100
2.3715800
2.3731100
2.3731100
2.3731100
2.3715800
2.3761600
2.3837900
2.3853100
2.3792100
2.3853100
2.3837900
2.3807400
2.3853100
2.3868400
2.3868400
2.3853100
2.3853100
2.3837900
2.3792100
2.3807400
2.3837900
2.3837900
2.3853100
2.3853100
2.3883700
2.3807400
2.3807400
2.3776900
2.3776900
2.3792100
2.3761600
2.3776900
2.3792100
2.3776900
2.3761600
2.3761600
2.3731100
2.3700600
2.3761600
2.3761600
2.3761600
2.3700600
2.3776900
2.3746300
2.3776900
2.3746300
2.3685300
2.3685300
2.3670000
2.3670000
2.3685300
2.3685300
2.3670000
2.3685300
2.3670000
2.3685300
2.3731100
2.3715800
2.3700600
2.3731100
2.3731100
2.3746300
2.3746300
2.3715800
2.3746300
2.3746300
2.3837900
2.3837900
2.3776900
2.3731100
2.3776900
2.3807400
2.3776900
2.3761600
2.3792100
2.3761600
2.3731100
2.3746300
2.3746300
2.3761600
2.3731100
2.3731100
2.3746300
2.3715800
2.3746300
2.3746300
2.3746300
2.3761600
2.3746300
2.3746300
2.3853100
2.3776900
2.3792100
2.3776900
2.3837900
2.3837900
2.3776900
2.3746300
2.3746300
2.3700600
2.3731100
2.3761600
2.3746300
2.3731100
2.3746300
2.3761600
2.3700600
2.3746300
2.3700600
2.3700600
2.3715800
2.3731100
2.3776900
2.3731100
2.3761600
2.3731100
2.3746300
2.3746300
2.3746300
2.3700600
2.3715800
2.3731100
2.3746300
2.3746300
2.3792100
2.3715800
2.3731100
2.3731100
2.3715800
2.3731100
2.3670000
2.3746300
2.3776900
2.3776900
2.3761600
2.3746300
2.3776900
2.3715800
2.3776900
2.3731100
2.3746300
2.3731100
2.3746300
2.3731100
2.3807400
2.3792100
2.3731100
2.3746300
2.3731100
2.3731100
2.3746300
2.3746300
2.3731100
2.3700600
2.3746300
2.3761600
2.3776900
2.3761600
2.3761600
2.3776900
2.3761600
2.3761600
2.3761600
2.3746300
2.3761600
2.3792100
2.3792100
2.3746300
2.3746300
2.3715800
2.3746300
2.3746300
2.3715800
2.3731100
2.3746300
2.3731100
2.3700600
2.3715800
2.3700600
2.3776900
2.3700600
2.3715800
2.3715800
2.3746300
2.3746300
2.3715800
2.3731100
2.3746300
2.3746300
2.3731100
2.3731100
2.3715800
2.3731100
2.3761600
2.3746300
2.3731100
2.3731100
2.3731100
2.3700600
2.3715800
2.3715800
2.3761600
2.3731100
2.3715800
2.3731100
2.3761600
2.3776900
2.3715800
2.3700600
2.3700600
2.3731100
2.3731100
2.3715800
2.3715800
2.3715800
2.3715800
2.3731100
2.3731100
2.3700600
2.3700600
2.3685300
2.3715800
2.3731100
2.3715800
2.3700600
2.3700600
2.3700600
2.3700600
2.3685300
2.3715800
2.3715800
2.3700600
2.3715800
2.3731100
2.3761600
2.3715800
2.3746300
2.3715800
2.3715800
2.3731100
2.3731100
2.3700600
2.3715800
2.3700600
2.3731100
2.3731100
2.3731100
2.3731100
2.3715800
2.3731100
2.3685300
2.3746300
2.3685300
2.3685300
2.3700600
2.3670000
2.3670000
2.3700600
2.3654800
2.3685300
2.3700600
2.3685300
2.3685300
2.3700600
2.3700600
2.3685300
2.3715800
2.3700600
2.3715800
2.3654800
2.3654800
2.3670000
2.3654800
2.3700600
2.3731100
2.3670000
2.3670000
2.3700600
2.3685300
2.3715800
2.3731100
2.3700600
2.3685300
2.3624300
2.3685300
2.3715800
2.3715800
2.3715800
2.3761600
2.3715800
2.3761600
2.3715800
2.3746300
2.3715800
2.3731100
2.3715800
2.3685300
2.3670000
2.3654800
2.3654800
2.3685300
2.3715800
2.3700600
2.3685300
2.3685300
2.3731100
2.3700600
2.3685300
2.3685300
2.3670000
2.3654800
2.3654800
2.3685300
2.3654800
2.3670000
2.3685300
2.3715800
2.3700600
2.3746300
2.3700600
2.3700600
2.3715800
2.3700600
2.3700600
2.3746300
2.3670000
2.3685300
2.3700600
2.3685300
2.3700600
2.3670000
2.3654800
2.3654800
2.3654800
2.3700600
2.3715800
2.3746300
2.3715800
2.3731100
2.3700600
2.3731100
2.3685300
2.3700600
2.3685300
2.3731100
2.3654800
2.3685300
2.3654800
2.3654800
2.3670000
2.3685300
2.3700600
2.3654800
2.3685300
2.3670000
2.3715800
2.3685300
2.3670000
2.3639500
2.3670000
2.3670000
2.3700600
2.3700600
2.3685300
2.3670000
2.3670000
2.3700600
2.3700600
2.3700600
2.3685300
2.3654800
2.3685300
2.3654800
2.3654800
2.3670000
2.3700600
2.3776900
2.3776900
2.3731100
2.3685300
2.3654800
2.3685300
2.3700600
2.3715800
2.3746300
2.3731100
2.3715800
2.3685300
2.3700600
2.3700600
2.3746300
2.3670000
2.3654800
2.3624300
2.3670000
2.3639500
2.3654800
2.3639500
2.3624300
2.3639500
2.3654800
2.3670000
2.3685300
2.3670000
2.3700600
2.3685300
2.3715800
2.3731100
2.3700600
2.3715800
2.3715800
2.3685300
2.3700600
2.3700600
2.3700600
2.3700600
2.3685300
2.3685300
2.3670000
2.3639500
2.3685300
2.3685300
2.3700600
2.3700600
2.3685300
2.3685300
2.3654800
2.3685300
2.3670000
2.3670000
2.3639500
2.3670000
2.3685300
2.3700600
2.3700600
2.3700600
2.3700600
2.3624300
2.3685300
2.3654800
2.3700600
2.3654800
2.3685300
2.3670000
2.3715800
2.3670000
2.3670000
2.3685300
2.3685300
2.3639500
2.3670000
2.3685300
2.3639500
2.3654800
2.3700600
2.3700600
2.3654800
2.3654800
2.3609000
2.3624300
2.3609000
2.3639500
2.3639500
2.3624300
2.3654800
2.3700600
2.3715800
2.3685300
2.3685300
2.3639500
2.3670000
2.3700600
2.3670000
2.3685300
2.3670000
2.3639500
2.3624300
2.3670000
2.3639500
2.3670000
2.3654800
2.3685300
2.3670000
2.3670000
2.3685300
2.3685300
2.3670000
2.3639500
2.3670000
2.3654800
2.3670000
2.3654800
2.3654800
2.3715800
2.3731100
2.3700600
2.3670000
2.3654800
2.3670000
2.3654800
2.3685300
2.3700600
2.3624300
2.3624300
2.3624300
2.3654800
2.3624300
2.3624300
2.3624300
2.3685300
2.3685300
2.3700600
2.3685300
2.3654800
2.3670000
2.3670000
2.3670000
2.3624300
2.3639500
2.3639500
2.3654800
2.3685300
2.3654800
2.3700600
2.3685300
2.3670000
2.3654800
2.3654800
2.3670000
2.3654800
2.3609000
2.3624300
2.3670000
2.3654800
2.3685300
2.3685300
2.3670000
2.3670000
2.3685300
2.3624300
2.3654800
2.3624300
2.3639500
2.3609000
2.3670000
2.3639500
2.3624300
2.3578500
2.3578500
2.3593800
2.3578500
2.3670000
2.3670000
2.3654800
2.3670000
2.3700600
2.3670000
2.3685300
2.3624300
2.3654800
2.3639500
2.3670000
2.3654800
2.3654800
2.3654800
2.3624300
2.3670000
2.3609000
2.3639500
2.3578500
2.3578500
2.3593800
2.3624300
2.3639500
2.3639500
2.3624300
2.3624300
2.3624300
2.3609000
2.3654800
2.3609000
2.3654800
2.3624300
2.3639500
2.3639500
2.3639500
2.3624300
2.3639500
2.3670000
2.3654800
2.3654800
2.3639500
2.3670000
2.3624300
2.3654800
2.3624300
2.3609000
2.3593800
2.3578500
2.3609000
2.3578500
2.3609000
2.3593800
2.3639500
2.3654800
2.3654800
2.3654800
2.3654800
2.3639500
2.3639500
2.3609000
2.3609000
2.3624300
2.3593800
2.3609000
2.3639500
2.3624300
2.3609000
2.3609000
2.3593800
2.3609000
2.3654800
2.3624300
2.3670000
2.3624300
2.3609000
2.3578500
2.3624300
2.3609000
2.3609000
2.3563200
2.3609000
2.3609000
2.3609000
2.3624300
2.3609000
2.3593800
2.3609000
2.3593800
2.3563200
2.3548000
2.3563200
2.3563200
2.3563200
2.3578500
2.3578500
2.3548000
2.3532700
2.3502200
2.3532700
2.3578500
2.3609000
2.3563200
2.3578500
2.3578500
2.3639500
2.3563200
2.3609000
2.3593800
2.3548000
2.3578500
2.3593800
2.3624300
2.3593800
2.3609000
2.3563200
2.3609000
2.3624300
2.3654800
2.3593800
2.3563200
2.3563200
2.3563200
2.3578500
2.3593800
2.3593800
2.3593800
2.3578500
2.3532700
2.3563200
2.3532700
2.3548000
2.3548000
2.3578500
2.3563200
2.3578500
2.3548000
2.3532700
2.3532700
2.3502200
2.3563200
2.3486900
2.3532700
2.3532700
2.3563200
2.3502200
2.3502200
2.3548000
2.3578500
2.3563200
2.3563200
2.3548000
2.3593800
2.3624300
2.3624300
2.3670000
2.3639500
2.3639500
2.3593800
2.3609000
2.3563200
2.3609000
2.3609000
2.3563200
2.3593800
2.3578500
2.3593800
2.3609000
2.3609000
2.3593800
2.3578500
2.3578500
2.3578500
2.3624300
2.3563200
2.3578500
2.3563200
2.3609000
2.3548000
2.3532700
2.3471700
2.3563200
2.3593800
2.3563200
2.3578500
2.3593800
2.3548000
2.3532700
2.3578500
2.3578500
2.3578500
2.3532700
2.3563200
2.3563200
2.3563200
2.3578500
2.3532700
2.3548000
2.3563200
2.3578500
2.3563200
2.3609000
2.3578500
2.3578500
2.3578500
2.3639500
2.3593800
2.3593800
2.3578500
2.3532700
2.3548000
2.3593800
2.3593800
2.3532700
2.3609000
2.3548000
2.3532700
2.3502200
2.3548000
2.3502200
2.3532700
2.3593800
2.3532700
2.3563200
2.3532700
2.3532700
2.3502200
2.3548000
2.3502200
2.3532700
2.3502200
2.3563200
2.3548000
2.3532700
2.3593800
2.3578500
2.3548000
2.3532700
2.3532700
2.3563200
2.3548000
2.3532700
2.3563200
2.3532700
2.3563200
2.3593800
2.3548000
2.3548000
2.3532700
2.3532700
2.3532700
2.3548000
2.3593800
2.3548000
2.3563200
2.3593800
2.3578500
2.3593800
2.3578500
2.3548000
2.3548000
2.3548000
2.3548000
2.3502200
2.3548000
2.3532700
2.3578500
2.3548000
2.3563200
2.3502200
2.3502200
2.3548000
2.3548000
2.3532700
2.3548000
2.3532700
2.3486900
2.3486900
2.3502200
2.3593800
2.3563200
2.3593800
2.3578500
2.3578500
2.3593800
2.3593800
2.3563200
2.3548000
2.3609000
2.3563200
2.3593800
2.3578500
2.3548000
2.3563200
2.3578500
2.3593800
2.3593800
2.3563200
2.3548000
2.3578500
2.3563200
2.3548000
2.3578500
2.3578500
2.3548000
2.3578500
2.3548000
2.3578500
2.3563200
2.3486900
2.3471700
2.3502200
2.3502200
2.3456400
2.3456400
2.3456400
2.3563200
2.3578500
2.3563200
2.3502200
2.3486900
2.3548000
2.3578500
2.3593800
2.3593800
2.3548000
2.3548000
2.3593800
2.3578500
2.3563200
2.3532700
2.3502200
2.3502200
2.3532700
2.3548000
2.3563200
2.3563200
2.3532700
2.3563200
2.3548000
2.3593800
2.3578500
2.3548000
2.3532700
2.3578500
2.3563200
2.3548000
2.3548000
2.3532700
2.3532700
2.3548000
2.3532700
2.3502200
2.3502200
2.3486900
2.3563200
2.3502200
2.3532700
2.3502200
2.3502200
2.3471700
2.3486900
2.3471700
2.3441200
2.3456400
2.3410600
2.3548000
2.3624300
2.3624300
2.3639500
2.3624300
2.3624300
2.3578500
2.3578500
2.3563200
2.3563200
2.3486900
2.3548000
2.3532700
2.3563200
2.3486900
2.3563200
2.3532700
2.3548000
2.3593800
2.3609000
2.3502200
2.3532700
2.3548000
2.3563200
2.3563200
2.3548000
2.3548000
2.3532700
2.3532700
2.3548000
2.3548000
2.3548000
2.3532700
2.3532700
2.3532700
2.3532700
2.3532700
2.3563200
2.3578500
2.3563200
2.3548000
2.3563200
2.3563200
2.3548000
2.3548000
2.3578500
2.3578500
2.3532700
2.3563200
2.3548000
2.3548000
2.3502200
2.3532700
2.3502200
2.3486900
2.3502200
2.3532700
2.3548000
2.3532700
2.3502200
2.3532700
2.3548000
2.3548000
2.3563200
2.3502200
2.3548000
2.3532700
2.3532700
2.3532700
2.3548000
2.3532700
2.3532700
2.3532700
2.3486900
2.3548000
2.3486900
2.3502200
2.3441200
2.3502200
2.3532700
2.3578500
2.3563200
2.3563200
2.3563200
2.3563200
2.3578500
2.3502200
2.3532700
2.3532700
2.3578500
2.3563200
2.3532700
2.3532700
2.3471700
2.3502200
2.3532700
2.3563200
2.3532700
2.3532700
2.3486900
2.3502200
2.3532700
2.3486900
2.3456400
2.3471700
2.3532700
2.3563200
2.3532700
2.3471700
2.3532700
2.3471700
2.3502200
2.3502200
2.3502200
2.3456400
2.3486900
2.3471700
2.3471700
2.3532700
2.3532700
2.3441200
2.3471700
2.3532700
2.3441200
2.3486900
2.3471700
2.3486900
2.3471700
2.3578500
2.3548000
2.3486900
2.3532700
2.3502200
2.3502200
2.3471700
2.3532700
2.3471700
2.3486900
2.3502200
2.3563200
2.3548000
2.3563200
2.3502200
2.3486900
2.3502200
2.3548000
2.3548000
2.3532700
2.3502200
2.3532700
2.3532700
2.3548000
2.3548000
2.3532700
2.3532700
2.3532700
2.3532700
2.3532700
2.3502200
2.3486900
2.3486900
2.3548000
2.3548000
2.3532700
2.3502200
2.3502200
2.3502200
2.3486900
2.3563200
2.3563200
2.3532700
2.3548000
2.3532700
2.3486900
2.3532700
2.3532700
2.3502200
2.3486900
2.3532700
2.3486900
2.3486900
2.3486900
2.3502200
2.3532700
2.3486900
2.3548000
2.3502200
2.3441200
2.3456400
2.3441200
2.3425900
2.3456400
2.3456400
2.3471700
2.3441200
2.3486900
2.3563200
2.3502200
2.3471700
2.3456400
2.3456400
2.3456400
2.3471700
2.3410600
2.3456400
2.3456400
2.3471700
2.3532700
2.3471700
2.3563200
2.3532700
2.3548000
2.3578500
2.3532700
2.3486900
2.3486900
2.3502200
2.3502200
2.3502200
2.3532700
2.3486900
2.3502200
2.3548000
2.3502200
2.3486900
2.3456400
2.3471700
2.3456400
2.3502200
2.3456400
2.3456400
2.3441200
2.3441200
2.3471700
2.3486900
2.3502200
2.3532700
2.3486900
2.3486900
2.3548000
2.3486900
2.3486900
2.3471700
2.3441200
2.3441200
2.3471700
2.3471700
2.3456400
2.3471700
2.3441200
2.3441200
2.3456400
2.3502200
2.3471700
2.3456400
2.3456400
2.3471700
2.3532700
2.3456400
2.3456400
2.3441200
2.3486900
2.3441200
2.3456400
2.3441200
2.3410600
2.3456400
2.3471700
2.3502200
2.3502200
2.3471700
2.3471700
2.3502200
2.3471700
2.3548000
2.3471700
2.3471700
2.3486900
2.3471700
2.3532700
2.3471700
2.3456400
2.3425900
2.3471700
2.3532700
2.3532700
2.3502200
2.3471700
2.3486900
2.3502200
2.3532700
2.3471700
2.3441200
2.3456400
2.3441200
2.3456400
2.3502200
2.3456400
2.3486900
2.3456400
2.3456400
2.3456400
2.3456400
2.3425900
2.3425900
2.3380100
2.3425900
2.3502200
2.3548000
2.3548000
2.3502200
2.3532700
2.3532700
2.3486900
2.3471700
2.3502200
2.3548000
2.3456400
2.3502200
2.3548000
2.3471700
2.3471700
2.3471700
2.3471700
2.3486900
2.3441200
2.3456400
2.3425900
2.3456400
2.3471700
2.3441200
2.3471700
2.3456400
2.3502200
2.3486900
2.3486900
2.3471700
2.3471700
2.3471700
2.3486900
2.3471700
2.3471700
2.3456400
2.3441200
2.3441200
2.3471700
2.3456400
2.3425900
2.3441200
2.3441200
2.3456400
2.3471700
2.3471700
2.3471700
2.3471700
2.3456400
2.3471700
2.3486900
2.3441200
2.3456400
2.3456400
2.3456400
2.3456400
2.3441200
2.3395400
2.3425900
2.3410600
2.3410600
2.3395400
2.3410600
2.3410600
2.3471700
2.3502200
2.3471700
2.3456400
2.3425900
2.3456400
2.3410600
2.3471700
2.3502200
2.3471700
2.3456400
2.3456400
2.3486900
2.3425900
2.3441200
2.3441200
2.3441200
2.3425900
2.3425900
2.3456400
2.3441200
2.3456400
2.3441200
2.3364900
2.3425900
2.3410600
2.3395400
2.3380100
2.3410600
2.3425900
2.3425900
2.3410600
2.3410600
2.3410600
2.3410600
2.3425900
2.3425900
2.3380100
2.3410600
2.3441200
2.3486900
2.3456400
2.3441200
2.3425900
2.3410600
2.3441200
2.3441200
2.3441200
2.3441200
2.3441200
2.3410600
2.3456400
2.3425900
2.3425900
2.3410600
2.3410600
2.3441200
2.3410600
2.3380100
2.3380100
2.3410600
2.3380100
2.3425900
2.3425900
2.3471700
2.3410600
2.3425900
2.3456400
2.3502200
2.3471700
2.3486900
2.3456400
2.3441200
2.3410600
2.3425900
2.3425900
2.3410600
2.3441200
2.3425900
2.3471700
2.3425900
2.3441200
2.3456400
2.3441200
2.3410600
2.3441200
2.3441200
2.3395400
2.3441200
2.3410600
2.3425900
2.3441200
2.3425900
2.3410600
2.3395400
2.3395400
2.3364900
2.3441200
2.3471700
2.3502200
2.3486900
2.3471700
2.3441200
2.3425900
2.3410600
2.3395400
2.3380100
2.3441200
2.3456400
2.3410600
2.3395400
2.3395400
2.3456400
2.3425900
2.3441200
2.3395400
2.3410600
2.3410600
2.3441200
2.3441200
2.3425900
2.3425900
2.3395400
2.3441200
2.3395400
2.3425900
2.3395400
2.3410600
2.3410600
2.3425900
2.3410600
2.3425900
2.3425900
2.3410600
2.3425900
2.3410600
2.3441200
2.3380100
2.3380100
2.3380100
2.3380100
2.3395400
2.3364900
2.3319100
2.3349600
2.3364900
2.3334400
2.3456400
2.3486900
2.3441200
2.3395400
2.3380100
2.3380100
2.3410600
2.3364900
2.3395400
2.3410600
2.3395400
2.3410600
2.3349600
2.3349600
2.3425900
2.3456400
2.3395400
2.3364900
2.3349600
2.3395400
2.3456400
2.3471700
2.3425900
2.3441200
2.3410600
2.3364900
2.3319100
2.3319100
2.3273300
2.3273300
2.3319100
2.3319100
2.3319100
2.3471700
2.3548000
2.3486900
2.3395400
2.3425900
2.3410600
2.3441200
2.3349600
2.3380100
2.3380100
2.3532700
2.3456400
2.3364900
2.3349600
2.3349600
2.3349600
2.3319100
2.3364900
2.3410600
2.3532700
2.3486900
2.3441200
2.3456400
2.3425900
2.3364900
2.3364900
2.3395400
2.3395400
2.3395400
2.3364900
2.3410600
2.3364900
2.3441200
2.3410600
2.3410600
2.3380100
2.3380100
2.3410600
2.3441200
2.3425900
2.3425900
2.3425900
2.3395400
2.3364900
2.3410600
2.3380100
2.3395400
2.3410600
2.3410600
2.3410600
2.3410600
2.3425900
2.3410600
2.3380100
2.3425900
2.3410600
2.3425900
2.3349600
2.3410600
2.3395400
2.3425900
2.3441200
2.3380100
2.3364900
2.3395400
2.3410600
2.3395400
2.3410600
2.3410600
2.3380100
2.3349600
2.3395400
2.3364900
2.3364900
2.3319100
2.3364900
2.3380100
2.3395400
2.3395400
2.3364900
2.3380100
2.3349600
2.3410600
2.3334400
2.3349600
2.3319100
2.3303800
2.3364900
2.3349600
2.3380100
2.3349600
2.3380100
2.3364900
2.3395400
2.3364900
2.3380100
2.3349600
2.3349600
2.3334400
2.3334400
2.3334400
2.3380100
2.3334400
2.3364900
2.3364900
2.3334400
2.3273300
2.3258100
2.3258100
2.3303800
2.3303800
2.3288600
2.3410600
2.3410600
2.3395400
2.3349600
2.3349600
2.3380100
2.3395400
2.3364900
2.3425900
2.3395400
2.3349600
2.3395400
2.3380100
2.3334400
2.3334400
2.3395400
2.3456400
2.3410600
2.3395400
2.3380100
2.3441200
2.3395400
2.3364900
2.3334400
2.3349600
2.3364900
2.3380100
2.3380100
2.3380100
2.3395400
2.3349600
2.3364900
2.3364900
2.3380100
2.3380100
2.3334400
2.3364900
2.3395400
2.3380100
2.3364900
2.3380100
2.3395400
2.3410600
2.3395400
2.3380100
2.3319100
2.3349600
2.3349600
2.3410600
2.3410600
2.3349600
2.3349600
2.3334400
2.3349600
2.3349600
2.3380100
2.3334400
2.3334400
2.3303800
2.3319100
2.3349600
2.3364900
2.3334400
2.3349600
2.3349600
2.3364900
2.3380100
2.3349600
2.3364900
2.3349600
2.3364900
2.3303800
2.3319100
2.3288600
2.3303800
2.3303800
2.3288600
2.3319100
2.3364900
2.3425900
2.3410600
2.3380100
2.3334400
2.3334400
2.3319100
2.3349600
2.3349600
2.3288600
2.3258100
2.3288600
2.3334400
2.3334400
2.3334400
2.3288600
2.3410600
2.3364900
2.3395400
2.3425900
2.3441200
2.3395400
2.3380100
2.3334400
2.3349600
2.3303800
2.3319100
2.3364900
2.3334400
2.3303800
2.3319100
2.3364900
2.3349600
2.3380100
2.3334400
2.3319100
2.3334400
2.3334400
2.3349600
2.3334400
2.3334400
2.3319100
2.3334400
2.3273300
2.3303800
2.3242800
2.3288600
2.3303800
2.3334400
2.3319100
2.3303800
2.3303800
2.3319100
2.3349600
2.3303800
2.3303800
2.3258100
2.3334400
2.3319100
2.3334400
2.3334400
2.3395400
2.3334400
2.3319100
2.3349600
2.3288600
2.3334400
2.3288600
2.3288600
2.3303800
2.3349600
2.3349600
2.3319100
2.3303800
2.3319100
2.3303800
2.3258100
2.3288600
2.3227500
2.3242800
2.3227500
2.3273300
2.3242800
2.3273300
2.3288600
2.3288600
2.3349600
2.3410600
2.3380100
2.3349600
2.3334400
2.3334400
2.3380100
2.3334400
2.3319100
2.3334400
2.3303800
2.3273300
2.3288600
2.3288600
2.3319100
2.3303800
2.3273300
2.3288600
2.3288600
2.3273300
2.3227500
2.3258100
2.3258100
2.3288600
2.3303800
2.3273300
2.3258100
2.3258100
2.3364900
2.3349600
2.3364900
2.3288600
2.3288600
2.3288600
2.3288600
2.3288600
2.3288600
2.3258100
2.3273300
2.3273300
2.3288600
2.3319100
2.3303800
2.3319100
2.3288600
2.3319100
2.3303800
2.3288600
2.3197000
2.3288600
2.3349600
2.3303800
2.3319100
2.3288600
2.3242800
2.3258100
2.3258100
2.3242800
2.3242800
2.3288600
2.3303800
2.3273300
2.3273300
2.3288600
2.3303800
2.3303800
2.3319100
2.3319100
2.3334400
2.3334400
2.3303800
2.3319100
2.3319100
2.3334400
2.3334400
2.3273300
2.3303800
2.3288600
2.3288600
2.3288600
2.3273300
2.3258100
2.3273300
2.3303800
2.3349600
2.3303800
2.3303800
2.3273300
2.3273300
2.3258100
2.3288600
2.3319100
2.3258100
2.3258100
2.3303800
2.3334400
2.3273300
2.3273300
2.3242800
2.3242800
2.3303800
2.3288600
2.3319100
2.3319100
2.3319100
2.3319100
2.3319100
2.3319100
2.3303800
2.3288600
2.3288600
2.3303800
2.3288600
2.3303800
2.3334400
2.3288600
2.3273300
2.3273300
2.3273300
2.3334400
2.3288600
2.3288600
2.3364900
2.3303800
2.3303800
2.3258100
2.3288600
2.3258100
2.3288600
2.3258100
2.3242800
2.3258100
2.3197000
2.3227500
2.3303800
2.3319100
2.3227500
2.3242800
2.3166500
2.3258100
2.3303800
2.3319100
2.3273300
2.3258100
2.3273300
2.3319100
2.3319100
2.3303800
2.3258100
2.3319100
2.3288600
2.3303800
2.3303800
2.3273300
2.3303800
2.3273300
2.3288600
2.3288600
2.3273300
2.3273300
2.3258100
2.3273300
2.3319100
2.3319100
2.3364900
2.3303800
2.3258100
2.3319100
2.3303800
2.3319100
2.3258100
2.3288600
2.3288600
2.3334400
2.3349600
2.3334400
2.3349600
2.3319100
2.3303800
2.3273300
2.3303800
2.3288600
2.3334400
2.3334400
2.3364900
2.3334400
2.3319100
2.3319100
2.3288600
2.3273300
2.3273300
2.3288600
2.3288600
2.3303800
2.3319100
2.3380100
2.3364900
2.3349600
2.3288600
2.3319100
2.3380100
2.3364900
2.3380100
2.3349600
2.3364900
2.3319100
2.3334400
2.3319100
2.3303800
2.3303800
2.3273300
2.3349600
2.3334400
2.3334400
2.3334400
2.3334400
2.3288600
2.3319100
2.3319100
2.3319100
2.3288600
2.3319100
2.3303800
2.3288600
2.3288600
2.3258100
2.3288600
2.3242800
2.3288600
2.3258100
2.3319100
2.3349600
2.3288600
2.3303800
2.3334400
2.3334400
2.3334400
2.3334400
2.3303800
2.3334400
2.3319100
2.3319100
2.3319100
2.3334400
2.3349600
2.3334400
2.3288600
2.3334400
2.3242800
2.3273300
2.3273300
2.3303800
2.3319100
2.3288600
2.3303800
2.3273300
2.3349600
2.3303800
2.3319100
2.3303800
2.3303800
2.3288600
2.3303800
2.3319100
2.3319100
2.3273300
2.3227500
2.3319100
2.3364900
2.3349600
2.3288600
2.3303800
2.3303800
2.3303800
2.3303800
2.3288600
2.3258100
2.3258100
2.3303800
2.3258100
2.3273300
2.3258100
2.3288600
2.3258100
2.3303800
2.3303800
2.3288600
2.3273300
2.3273300
2.3288600
2.3242800
2.3242800
2.3273300
2.3181800
2.3197000
2.3242800
2.3181800
2.3181800
2.3181800
2.3258100
2.3319100
2.3334400
2.3273300
2.3227500
2.3242800
2.3242800
2.3273300
2.3273300
2.3303800
2.3303800
2.3364900
2.3334400
2.3303800
2.3349600
2.3303800
2.3288600
2.3288600
2.3303800
2.3303800
2.3288600
2.3273300
2.3288600
2.3288600
2.3334400
2.3349600
2.3319100
2.3303800
2.3288600
2.3319100
2.3258100
2.3303800
2.3242800
2.3242800
2.3288600
2.3303800
2.3288600
2.3303800
2.3242800
2.3273300
2.3319100
2.3303800
2.3319100
2.3258100
2.3273300
2.3273300
2.3319100
2.3288600
2.3288600
2.3227500
2.3273300
2.3258100
2.3319100
2.3319100
2.3288600
2.3303800
2.3319100
2.3334400
2.3319100
2.3334400
2.3288600
2.3319100
2.3319100
2.3303800
2.3273300
2.3288600
2.3303800
2.3288600
2.3288600
2.3288600
2.3288600
2.3227500
2.3288600
2.3273300
2.3273300
2.3227500
2.3303800
2.3258100
2.3242800
2.3273300
2.3242800
2.3288600
2.3288600
2.3319100
2.3303800
2.3334400
2.3319100
2.3319100
2.3273300
2.3273300
2.3303800
2.3288600
2.3319100
2.3303800
2.3258100
2.3227500
2.3258100
2.3242800
2.3319100
2.3258100
2.3334400
2.3303800
2.3319100
2.3319100
2.3258100
2.3288600
2.3258100
2.3303800
2.3288600
2.3273300
2.3242800
2.3258100
2.3303800
2.3303800
2.3288600
2.3303800
2.3303800
2.3288600
2.3288600
2.3303800
2.3288600
2.3258100
2.3273300
2.3258100
2.3197000
2.3258100
2.3273300
2.3288600
2.3288600
2.3303800
2.3258100
2.3273300
2.3197000
2.3273300
2.3197000
2.3288600
2.3258100
2.3242800
2.3227500
2.3242800
2.3258100
2.3258100
2.3258100
2.3242800
2.3242800
2.3258100
2.3242800
2.3273300
2.3273300
2.3273300
2.3319100
2.3303800
2.3303800
2.3288600
2.3319100
2.3303800
2.3288600
2.3288600
2.3273300
2.3288600
2.3258100
2.3334400
2.3288600
2.3303800
2.3288600
2.3303800
2.3334400
2.3303800
2.3349600
2.3319100
2.3303800
2.3258100
2.3288600
2.3258100
2.3227500
2.3242800
2.3288600
2.3258100
2.3197000
2.3273300
2.3273300
2.3288600
2.3273300
2.3288600
2.3288600
2.3303800
2.3273300
2.3258100
2.3258100
2.3227500
2.3258100
2.3258100
2.3273300
2.3227500
2.3258100
2.3227500
2.3288600
2.3273300
2.3258100
2.3288600
2.3273300
2.3258100
2.3242800
2.3303800
2.3273300
2.3288600
2.3273300
2.3288600
2.3273300
2.3273300
2.3242800
2.3258100
2.3242800
2.3273300
2.3273300
2.3227500
2.3227500
2.3227500
2.3258100
2.3273300
2.3258100
2.3197000
2.3258100
2.3242800
2.3227500
2.3303800
2.3288600
2.3258100
2.3242800
2.3273300
2.3258100
2.3273300
2.3197000
2.3258100
2.3258100
2.3288600
2.3258100
2.3242800
2.3258100
2.3258100
2.3242800
2.3273300
2.3303800
2.3288600
2.3227500
2.3242800
2.3319100
2.3303800
2.3273300
2.3242800
2.3242800
2.3197000
2.3242800
2.3242800
2.3197000
2.3227500
2.3242800
2.3227500
2.3181800
2.3242800
2.3227500
2.3227500
2.3227500
2.3227500
2.3258100
2.3197000
2.3227500
2.3181800
2.3242800
2.3227500
2.3151200
2.3136000
2.3166500
2.3166500
2.3273300
2.3242800
2.3258100
2.3227500
2.3197000
2.3242800
2.3197000
2.3227500
2.3151200
2.3181800
2.3181800
2.3319100
2.3303800
2.3288600
2.3380100
2.3319100
2.3334400
2.3319100
2.3319100
2.3227500
2.3258100
2.3258100
2.3303800
2.3227500
2.3303800
2.3258100
2.3288600
2.3273300
2.3303800
2.3319100
2.3303800
2.3273300
2.3273300
2.3303800
2.3258100
2.3288600
2.3242800
2.3258100
2.3227500
2.3242800
2.3273300
2.3273300
2.3288600
2.3273300
2.3258100
2.3273300
2.3273300
2.3197000
2.3181800
2.3227500
2.3273300
2.3319100
2.3364900
2.3288600
2.3258100
2.3288600
2.3273300
2.3303800
2.3227500
2.3258100
2.3273300
2.3273300
2.3288600
2.3288600
2.3227500
2.3258100
2.3273300
2.3227500
2.3258100
2.3242800
2.3273300
2.3273300
2.3319100
2.3273300
2.3303800
2.3258100
2.3258100
2.3242800
2.3349600
2.3334400
2.3273300
2.3273300
2.3273300
2.3303800
2.3258100
2.3288600
2.3273300
2.3242800
2.3288600
2.3273300
2.3303800
2.3273300
2.3258100
2.3227500
2.3258100
2.3288600
2.3288600
2.3227500
2.3258100
2.3273300
2.3258100
2.3273300
2.3288600
2.3258100
2.3258100
2.3273300
2.3197000
2.3258100
2.3197000
2.3197000
2.3242800
2.3258100
2.3273300
2.3242800
2.3258100
2.3242800
2.3242800
2.3197000
2.3197000
2.3227500
2.3197000
2.3181800
2.3227500
2.3288600
2.3319100
2.3303800
2.3273300
2.3227500
2.3303800
2.3273300
2.3258100
2.3273300
2.3258100
2.3273300
2.3242800
2.3273300
2.3181800
2.3197000
2.3227500
2.3197000
2.3273300
2.3227500
2.3288600
2.3258100
2.3242800
2.3242800
2.3227500
2.3151200
2.3151200
2.3151200
2.3166500
2.3273300
2.3303800
2.3273300
2.3258100
2.3258100
2.3242800
2.3258100
2.3258100
2.3288600
2.3258100
2.3303800
2.3288600
2.3288600
2.3273300
2.3242800
2.3258100
2.3242800
2.3258100
2.3242800
2.3197000
2.3197000
2.3273300
2.3258100
2.3227500
2.3227500
2.3197000
2.3227500
2.3288600
2.3242800
2.3258100
2.3242800
2.3197000
2.3258100
2.3242800
2.3242800
2.3242800
2.3227500
2.3227500
2.3242800
2.3197000
2.3181800
2.3166500
2.3181800
2.3197000
2.3197000
2.3227500
2.3166500
2.3181800
2.3181800
2.3227500
2.3258100
2.3273300
2.3258100
2.3258100
2.3258100
2.3227500
2.3258100
2.3181800
2.3197000
2.3227500
2.3273300
2.3258100
2.3258100
2.3258100
2.3258100
2.3181800
2.3227500
2.3227500
2.3166500
2.3197000
2.3197000
2.3242800
2.3227500
2.3227500
2.3197000
2.3166500
2.3166500
2.3227500
2.3181800
2.3181800
2.3227500
2.3197000
2.3166500
2.3136000
2.3181800
2.3120700
2.3136000
2.3197000
2.3197000
2.3197000
2.3197000
2.3197000
2.3181800
2.3242800
2.3242800
2.3197000
2.3181800
2.3197000
2.3151200
2.3166500
2.3227500
2.3197000
2.3181800
2.3181800
2.3197000
2.3151200
2.3181800
2.3120700
2.3136000
2.3105500
2.3105500
2.3151200
2.3197000
2.3166500
2.3151200
2.3120700
2.3120700
2.3120700
2.3151200
2.3197000
2.3151200
2.3181800
2.3197000
2.3181800
2.3166500
2.3166500
2.3151200
2.3197000
2.3197000
2.3151200
2.3197000
2.3181800
2.3151200
2.3151200
2.3136000
2.3120700
2.3136000
2.3120700
2.3151200
2.3166500
2.3151200
2.3151200
2.3166500
2.3181800
2.3136000
2.3166500
2.3105500
2.3136000
2.3120700
2.3120700
2.3151200
2.3151200
2.3105500
2.3090200
2.3105500
2.3105500
2.3136000
2.3120700
2.3105500
2.3136000
2.3181800
2.3151200
2.3151200
2.3151200
2.3136000
2.3151200
2.3151200
2.3166500
2.3151200
2.3151200
2.3166500
2.3181800
2.3136000
2.3197000
2.3136000
2.3136000
2.3075000
2.3120700
2.3151200
2.3136000
2.3120700
2.3120700
2.3136000
2.3136000
2.3136000
2.3090200
2.3105500
2.3090200
2.3120700
2.3105500
2.3090200
2.3075000
2.3090200
2.3105500
2.3166500
2.3136000
2.3120700
2.3120700
2.3120700
2.3136000
2.3136000
2.3166500
2.3136000
2.3136000
2.3120700
2.3105500
2.3075000
2.3075000
2.3120700
2.3075000
2.3105500
2.3075000
2.3090200
2.3105500
2.3105500
2.3151200
2.3151200
2.3136000
2.3105500
2.3090200
2.3120700
2.3136000
2.3105500
2.3105500
2.3120700
2.3120700
2.3105500
2.3120700
2.3136000
2.3136000
2.3181800
2.3120700
2.3120700
2.3120700
2.3151200
2.3120700
2.3105500
2.3151200
2.3136000
2.3136000
2.3105500
2.3090200
2.3105500
2.3120700
2.3136000
2.3090200
2.3059700
2.3090200
2.3105500
2.3090200
2.3120700
2.3166500
2.3105500
2.3136000
2.3151200
2.3136000
2.3090200
2.3120700
2.3136000
2.3136000
2.3136000
2.3120700
2.3136000
2.3136000
2.3136000
2.3181800
2.3136000
2.3136000
2.3105500
2.3120700
2.3120700
2.3136000
2.3120700
2.3120700
2.3105500
2.3105500
2.3090200
2.3120700
2.3166500
2.3105500
2.3105500
2.3120700
2.3090200
2.3136000
2.3105500
2.3120700
2.3151200
2.3136000
2.3166500
2.3181800
2.3136000
2.3105500
2.3120700
2.3181800
2.3151200
2.3151200
2.3105500
2.3120700
2.3120700
2.3136000
2.3136000
2.3090200
2.3090200
2.3090200
2.3105500
2.3059700
2.3075000
2.3044400
2.3136000
2.3151200
2.3120700
2.3120700
2.3136000
2.3166500
2.3151200
2.3166500
2.3136000
2.3227500
2.3151200
2.3136000
2.3151200
2.3151200
2.3166500
2.3120700
2.3136000
2.3120700
2.3090200
2.3120700
2.3090200
2.3090200
2.3075000
2.3059700
2.3090200
2.3044400
2.3059700
2.3013900
2.3013900
2.3059700
2.3059700
2.3120700
2.3166500
2.3151200
2.3151200
2.3151200
2.3136000
2.3136000
2.3075000
2.3105500
2.3105500
2.3090200
2.3136000
2.3151200
2.3105500
2.3075000
2.3105500
2.3090200
2.3105500
2.3044400
2.3105500
2.3105500
2.3105500
2.3105500
2.3120700
2.3136000
2.3136000
2.3181800
2.3105500
2.3136000
2.3075000
2.3105500
2.3075000
2.3105500
2.3059700
2.3059700
2.3059700
2.3105500
2.3136000
2.3105500
2.3105500
2.3059700
2.3105500
2.3090200
2.3105500
2.3105500
2.3090200
2.3059700
2.3075000
2.3075000
2.3090200
2.3090200
2.3059700
2.3105500
2.3059700
2.3090200
2.3090200
2.3075000
2.3059700
2.3059700
2.3044400
2.3013900
2.3075000
2.3090200
2.3090200
2.3090200
2.3120700
2.3105500
2.3120700
2.3136000
2.3105500
2.3120700
2.3075000
2.3090200
2.3090200
2.3090200
2.3059700
2.3136000
2.3105500
2.3120700
2.3090200
2.3136000
2.3120700
2.3151200
2.3120700
2.3120700
2.3120700
2.3120700
2.3105500
2.3166500
2.3120700
2.3120700
2.3136000
2.3120700
2.3120700
2.3120700
2.3105500
2.3090200
2.3075000
2.3090200
2.3075000
2.3090200
2.3059700
2.3075000
2.3075000
2.3105500
2.3105500
2.3090200
2.3075000
2.3075000
2.3090200
2.3059700
2.3105500
2.3105500
2.3090200
2.3075000
2.3105500
2.3075000
2.3059700
2.3044400
2.3075000
2.3044400
2.3090200
2.3136000
2.3075000
2.3059700
2.3044400
2.3059700
2.3029200
2.3013900
2.3029200
2.3044400
2.3105500
2.3120700
2.3120700
2.3136000
2.3136000
2.3075000
2.3090200
2.3120700
2.3136000
2.3105500
2.3120700
2.3075000
2.3090200
2.3090200
2.3105500
2.3059700
2.3059700
2.3090200
2.3090200
2.3075000
2.3044400
2.3075000
2.3090200
2.3090200
2.3059700
2.3075000
2.3059700
2.3013900
2.3029200
2.3013900
2.3029200
2.3013900
2.2998700
2.2968100
2.2998700
2.3029200
2.3044400
2.2998700
2.3044400
2.3120700
2.3105500
2.3105500
2.3090200
2.3090200
2.3090200
2.3120700
2.3090200
2.3075000
2.3059700
2.3029200
2.3059700
2.3120700
2.3075000
2.3090200
2.3044400
2.3029200
2.3044400
2.3059700
2.3075000
2.3029200
2.3044400
2.3059700
2.3090200
2.3059700
2.3075000
2.3029200
2.3013900
2.3075000
2.3044400
2.3013900
2.3044400
2.3151200
2.3090200
2.3120700
2.3059700
2.3044400
2.3044400
2.3059700
2.3059700
2.3059700
2.3090200
2.3090200
2.3044400
2.3059700
2.3075000
2.3075000
2.3075000
2.3059700
2.3059700
2.3044400
2.3075000
2.3090200
2.3090200
2.3075000
2.3059700
2.3120700
2.3075000
2.3075000
2.3044400
2.3075000
2.3090200
2.3105500
2.3044400
2.3044400
2.3044400
2.2998700
2.3013900
2.3013900
2.3013900
2.2983400
2.3013900
2.3044400
2.3013900
2.3044400
2.3029200
2.3044400
2.3029200
2.3029200
2.3044400
2.3059700
2.2998700
2.3044400
2.3029200
2.3059700
2.3075000
2.3075000
2.3044400
2.3044400
2.3013900
2.3044400
2.3090200
2.3044400
2.3029200
2.3013900
2.3059700
2.3013900
2.3059700
2.3013900
2.3013900
2.2998700
2.2968100
2.2983400
2.2983400
2.2998700
2.3013900
2.3090200
2.3059700
2.3090200
2.3044400
2.3059700
2.3044400
2.3090200
2.3075000
2.3090200
2.3075000
2.3013900
2.2983400
2.3044400
2.3013900
2.2998700
2.2952900
2.2983400
2.2998700
2.2983400
2.2968100
2.2998700
2.2952900
2.3013900
2.3013900
2.2983400
2.2952900
2.3044400
2.2998700
2.2998700
2.2968100
2.2952900
2.2983400
2.3013900
2.2998700
2.2998700
2.3044400
2.3029200
2.3044400
2.3013900
2.3059700
2.2998700
2.3013900
2.2998700
2.2998700
2.3013900
2.3059700
2.3059700
2.2998700
2.3013900
2.3029200
2.3075000
2.3029200
2.3029200
2.2983400
2.2998700
2.3013900
2.3029200
2.3044400
2.3044400
2.3059700
2.3029200
2.3059700
2.3029200
2.3029200
2.3044400
2.3029200
2.3029200
2.3029200
2.2983400
2.2983400
2.3013900
2.2983400
2.2998700
2.2998700
2.3059700
2.3105500
2.3090200
2.3090200
2.3105500
2.3059700
2.3059700
2.3013900
2.3013900
2.3044400
2.3029200
2.3029200
2.3013900
2.3029200
2.3013900
2.2998700
2.3059700
2.3059700
2.3059700
2.3090200
2.3059700
2.3044400
2.3059700
2.3013900
2.3044400
2.3059700
2.3075000
2.3044400
2.3044400
2.3013900
2.3013900
2.3029200
2.3044400
2.3044400
2.3090200
2.3090200
2.3044400
2.3075000
2.3013900
2.3044400
2.2968100
2.2983400
2.2998700
2.2983400
2.2968100
2.2952900
2.3013900
2.2983400
2.3044400
2.3075000
2.3090200
2.3029200
2.3075000
2.3075000
2.3090200
2.3105500
2.3059700
2.3059700
2.3044400
2.3044400
2.2983400
2.3059700
2.3013900
2.3059700
2.3029200
2.3044400
2.2998700
2.3029200
2.2968100
2.3029200
2.3059700
2.3013900
2.3029200
2.3013900
2.2998700
2.2998700
2.3059700
2.3013900
2.3059700
2.2998700
2.3029200
2.3013900
2.3059700
2.3029200
2.3059700
2.3044400
2.3029200
2.3029200
2.3044400
2.2998700
2.3044400
2.3013900
2.2998700
2.3029200
2.2998700
2.2983400
2.3013900
2.2968100
2.3029200
2.3044400
2.3029200
2.2968100
2.3044400
2.2998700
2.3013900
2.2998700
2.2983400
2.2968100
2.2998700
2.3013900
2.2998700
2.3013900
2.2983400
2.3013900
2.3013900
2.3044400
2.3029200
2.2983400
2.2968100
2.2968100
2.3013900
2.2968100
2.3013900
2.2983400
2.2968100
2.3013900
2.3044400
2.3013900
2.3044400
2.3013900
2.2998700
2.3013900
2.2998700
2.3044400
2.3075000
2.3044400
2.3013900
2.3013900
2.2983400
2.2968100
2.2952900
2.2983400
2.2968100
2.2968100
2.2998700
2.2968100
2.2983400
2.2968100
2.2952900
2.2952900
2.2998700
2.2952900
2.2968100
2.2998700
2.2998700
2.2968100
2.2968100
2.3013900
2.3044400
2.3044400
2.3044400
2.3029200
2.2998700
2.3029200
2.3013900
2.3059700
2.3029200
2.3044400
2.2983400
2.3013900
2.3029200
2.3044400
2.3059700
2.2998700
2.2968100
2.2952900
2.3013900
2.2983400
2.3029200
2.2968100
2.3013900
2.2998700
2.2998700
2.3013900
2.3044400
2.3044400
2.3044400
2.3059700
2.3044400
2.2998700
2.2952900
2.2952900
2.2968100
2.2937600
2.3013900
2.2998700
2.3013900
2.2968100
2.2998700
2.3029200
2.3029200
2.2983400
2.3013900
2.2998700
2.3029200
2.3029200
2.2983400
2.2968100
2.2998700
2.2968100
2.2968100
2.2983400
2.2983400
2.2968100
2.3013900
2.3044400
2.2983400
2.2968100
2.2968100
2.2937600
2.2968100
2.2968100
2.2983400
2.2952900
2.2998700
2.2968100
2.2998700
2.2937600
2.2952900
2.2861300
2.2952900
2.3044400
2.3044400
2.3044400
2.3059700
2.3059700
2.3013900
2.3044400
2.2998700
2.3029200
2.2998700
2.2983400
2.2983400
2.3013900
2.3013900
2.3013900
2.2998700
2.2983400
2.3013900
2.2968100
2.2983400
2.2968100
2.2998700
2.2998700
2.3013900
2.2998700
2.2998700
2.2983400
2.2998700
2.3013900
2.3044400
2.3059700
2.3029200
2.2998700
2.3013900
2.3075000
2.3075000
2.3044400
2.3044400
2.2983400
2.3029200
2.3029200
2.3029200
2.3029200
2.3013900
2.3029200
2.3044400
2.3013900
2.2998700
2.2952900
2.2968100
2.2968100
2.2983400
2.2998700
2.3029200
2.3044400
2.3059700
2.3075000
2.3044400
2.3013900
2.2998700
2.2983400
2.2998700
2.2998700
2.3029200
2.2983400
2.2968100
2.2968100
2.2968100
2.2998700
2.3013900
2.2968100
2.2983400
2.2968100
2.2998700
2.3029200
2.2998700
2.2998700
2.2983400
2.2983400
2.2968100
2.2983400
2.2968100
2.2937600
2.2952900
2.2952900
2.2937600
2.2952900
2.2861300
2.2952900
2.2983400
2.2952900
3.2243534
3.2238538
3.2260500
3.2284480
3.2181917
3.2195095
3.2241141
3.2220746
3.2239918
3.2188455
3.2242095
3.2268681
3.2201174
3.2246915
3.2203640
3.2176824
3.2240703
3.2230114
3.2225319
3.2247984
3.2241779
3.2265036
3.2328137
3.2269702
3.2212082
3.2229518
3.2280924
3.2349049
3.2256447
3.2243930
3.2300466
3.2266281
3.2225621
3.2208695
3.2274303
3.2267794
3.2205235
3.2109607
3.2138155
3.2222617
3.2223489
3.2228322
3.2212712
3.2288585
3.2273872
3.2276206
3.2256126
3.2268180
3.2348249
3.2289723
3.2309975
3.2260067
3.2192056
3.2188411
3.2232680
3.2208978
3.2246512
3.2264377
3.2157433
3.2263280
3.2183126
3.2183462
3.2266256
3.2203923
3.2283875
3.2288591
3.2244424
3.2227900
3.2251850
3.2239919
3.2228904
3.2190195
3.2203986
3.2289698
3.2221013
3.2211367
3.2214060
3.2269713
3.2249159
3.2164211
3.2243761
3.2203544
3.2255638
3.2243706
3.2142715
3.2249303
3.2231672
3.2225287
3.2291268
3.2290713
3.2302810
3.2250951
3.2247220
3.2271249
3.2182229
3.2208588
3.2209891
3.2177557
3.2267732
3.2188633
3.2217041
3.2258199
3.2195170
3.2228214
3.2205581
3.2257352
3.2163923
3.2151785
3.2244191
3.2179186
3.2266667
3.2306051
3.2234059
3.2206788
3.2228870
3.2236663
3.2223657
3.2235796
3.2278691
3.2244235
3.2204060
3.2244206
3.2284036
3.2329406
3.2247523
3.2264740
3.2265015
3.2197605
3.2221835
3.2191926
3.2213895
3.2245713
3.2293148
3.2262026
3.2171596
3.2186514
3.2246449
3.2224506
3.2243422
3.2327076
3.2281449
3.2198724
3.2188939
3.2279485
3.2232230
3.2184015
3.2214409
3.2196694
3.2231788
3.2227566
3.2199612
3.2112446
3.2176460
3.2277281
3.2286013
3.2304502
3.2252542
3.2259098
3.2225587
3.2255675
3.2223111
3.2238525
3.2333324
3.2254395
3.2251683
3.2214172
3.2259645
3.2258391
3.2208451
3.2240645
3.2215132
3.2275404
3.2264364
3.2215296
3.2167179
3.2248762
3.2312604
3.2211988
3.2239793
3.2251337
3.2262744
3.2228895
3.2243224
3.2278931
3.2204374
3.2242556
3.2176827
3.2092870
3.2136083
3.2310865
3.2390734
3.2211026
3.2277164
3.2361355
3.2233215
3.2238594
3.2260228
3.2238145
3.2253124
3.2229041
3.2262157
3.2251638
3.2266611
3.2317622
3.2183444
3.2204893
3.2222074
3.2128060
3.2163332
3.2232135
3.2246228
3.2193421
3.2234136
3.2201865
3.2206001
3.2270077
3.2239916
3.2279947
3.2252595
3.2241881
3.2232886
3.2275843
3.2303593
3.2190841
3.2213093
3.2254954
3.2305659
3.2294644
3.2224520
3.2251480
3.2206232
3.2186450
3.2309497
3.2325716
3.2236403
3.2188777
3.2184256
3.2228958
3.2239197
3.2239060
3.2187450
3.2169479
3.2150689
3.2160870
3.2304401
3.2171644
3.2090542
3.2307403
3.2318577
3.2220935
3.2173558
3.2206168
3.2279309
3.2229902
3.2259428
3.2324778
3.2285359
3.2255569
3.2250984
3.2244002
3.2216796
3.2254026
3.2275791
3.2214866
3.2216283
3.2263593
3.2279483
3.2198885
3.2202186
3.2204389
3.2205315
3.2312001
3.2291702
3.2349560
3.2305527
3.2225228
3.2213146
3.2195608
3.2282260
3.2246134
3.2225460
3.2186920
3.2251824
3.2259455
3.2116905
3.2165385
3.2248723
3.2290704
3.2270724
3.2268379
3.2201865
3.2228054
3.2300289
3.2190663
3.2255100
3.2279231
3.2217793
3.2212753
3.2140748
3.2263789
3.2300868
3.2166220
3.2196321
3.2231457
3.2255336
3.2205413
3.2231283
3.2288500
3.2251408
3.2337377
3.2295481
3.2251436
3.2301075
3.2303728
3.2323595
3.2240106
3.2186061
3.2227019
3.2197128
3.2231415
3.2255851
3.2216979
3.2281602
3.2271816
3.2264607
3.2216013
3.2176687
3.2255863
3.2192593
3.2197043
3.2256946
3.2249362
3.2254046
3.2253784
3.2249156
3.2202645
3.2227530
3.2270642
3.2295561
3.2260798
3.2151990
3.2232027
3.2253153
3.2256600
3.2324164
3.2187915
3.2223321
3.2232712
3.2167192
3.2285973
3.2272233
3.2248198
3.2255110
3.2249317
3.2260416
3.2247253
3.2268333
3.2230064
3.2177221
3.2231618
3.2243052
3.2249020
3.2270854
3.2194796
3.2234139
3.2285328
3.2214865
3.2165594
3.2232176
3.2246692
3.2169377
3.2251568
3.2323087
3.2277968
3.2252768
3.2340107
3.2257512
3.2189814
3.2322253
3.2248952
3.2289623
3.2330571
3.2198468
3.2198533
3.2189260
3.2193290
3.2253836
3.2238267
3.2218822
3.2203755
3.2219941
3.2259418
3.2250565
3.2297934
3.2235387
3.2167001
3.2195877
3.2159921
3.2163733
3.2186681
3.2188040
3.2258794
3.2312793
3.2273036
3.2266251
3.2236927
3.2282251
3.2287678
3.2181607
3.2184709
3.2148042
3.2140526
3.2213570
3.2265597
3.2280267
3.2296542
3.2344799
3.2334697
3.2281143
3.2296409
3.2229542
3.2140798
3.2202803
3.2149486
3.2100189
3.2114010
3.2213975
3.2278701
3.2221720
3.2304800
3.2246785
3.2275370
3.2310994
3.2232056
3.2310410
3.2224492
3.2149496
3.2136295
3.2184916
3.2246283
3.2133932
3.2136528
3.2267508
3.2322640
3.2228297
3.2264984
3.2373946
3.2297929
3.2306491
3.2335147
3.2282883
3.2273717
3.2307483
3.2294201
3.2207728
3.2253823
3.2232791
3.2152685
3.2215702
3.2240384
3.2300546
3.2265398
3.2155163
3.2127514
3.2167334
3.2238237
3.2207316
3.2251633
3.2245951
3.2147344
3.2183946
3.2187784
3.2195394
3.2303343
3.2223130
3.2196736
3.2342269
3.2259005
3.2263510
3.2318677
3.2251566
3.2287433
3.2320183
3.2319191
3.2298848
3.2262283
3.2220799
3.2236243
3.2220160
3.2234306
3.2290971
3.2196920
3.2221500
3.2213597
3.2196848
3.2268085
3.2185423
3.2174174
3.2146658
3.2196996
3.2307024
3.2312094
3.2255565
3.2140718
3.2132543
3.2193396
3.2293744
3.2204849
3.2175705
3.2288039
3.2240308
3.2289105
3.2309228
3.2238494
3.2266923
3.2291811
3.2244787
3.2188901
3.2249081
3.2338874
3.2228986
3.2206725
3.2251323
3.2243869
3.2250531
3.2223645
3.2273322
3.2226789
3.2221171
3.2272803
3.2213327
3.2153819
3.2208954
3.2193711
3.2201774
3.2320156
3.2303418
3.2265148
3.2166591
3.2164694
3.2170662
3.2210516
3.2251950
3.2210570
3.2244722
3.2240978
3.2274716
3.2218887
3.2255027
3.2303579
3.2262012
3.2267731
3.2242532
3.2288180
3.2267703
3.2241364
3.2229445
3.2196960
3.2235152
3.2237083
3.2247019
3.2261723
3.2201435
3.2203013
3.2270801
3.2276428
3.2232533
3.2173296
3.2165849
3.2151611
3.2072687
3.2090113
3.2204037
3.2297384
3.2216911
3.2204748
3.2438592
3.2445337
3.2327840
3.2245145
3.2125885
3.2201698
3.2261311
3.2197510
3.2248204
3.2265717
3.2219636
3.2212647
3.2271879
3.2318441
3.2216288
3.2236039
3.2283562
3.2192213
3.2197817
3.2209631
3.2178441
3.2209342
3.2123881
3.2140920
3.2236890
3.2204900
3.2300671
3.2308229
3.2273862
3.2287198
3.2280837
3.2217620
3.2186585
3.2245408
3.2221440
3.2189550
3.2178572
3.2302314
3.2258093
3.2186490
3.2294169
3.2210217
3.2206692
3.2279110
3.2226784
3.2235923
3.2283991
3.2239260
3.2214230
3.2233008
3.2215081
3.2272735
3.2227651
3.2140311
3.2272192
3.2320893
3.2223499
3.2174597
3.2198766
3.2231943
3.2229063
3.2219088
3.2262437
3.2244004
3.2189273
3.2255929
3.2315732
3.2282460
3.2205262
3.2246889
3.2232126
3.2165347
3.2190778
3.2277939
3.2303317
3.2271550
3.2300094
3.2198049
3.2234495
3.2276197
3.2232027
3.2294367
3.2285564
3.2191395
3.2173020
3.2248920
3.2224347
3.2235305
3.2232933
3.2172259
3.2185922
3.2242394
3.2175263
3.2124828
3.2225346
3.2237655
3.2229799
3.2223224
3.2184728
3.2231430
3.2289136
3.2249412
3.2251779
3.2275363
3.2270123
3.2311792
3.2327683
3.2258417
3.2236870
3.2248734
3.2269009
3.2311522
3.2191585
3.2181566
3.2203857
3.2184735
3.2228665
3.2128724
3.2183652
3.2200615
3.2183913
3.2288547
3.2250465
3.2341667
3.2374082
3.2222247
3.2129184
3.2182772
3.2294122
3.2244955
3.2244322
3.2246547
3.2240147
3.2264801
3.2239121
3.2261503
3.2175879
3.2156818
3.2197351
3.2142996
3.2192958
3.2206024
3.2151912
3.2158479
3.2217217
3.2235806
3.2261704
3.2289060
3.2266330
3.2293987
3.2297710
3.2277576
3.2177568
3.2163197
3.2221986
3.2211344
3.2252494
3.2257483
3.2256563
3.2229238
3.2256823
3.2262839
3.2172961
3.2179419
3.2252954
3.2278362
3.2217091
3.2254515
3.2292533
3.2282115
3.2314681
3.2268081
3.2214415
3.2218586
3.2243990
3.2168444
3.2169935
3.2289652
3.2291019
3.2236870
3.2178411
3.2187878
3.2203596
3.2278629
3.2394902
3.2355316
3.2237110
3.2244397
3.2245956
3.2192146
3.2294988
3.2237403
3.2193448
3.2303674
3.2301721
3.2262238
3.2298471
3.2325839
3.2228367
3.2241144
3.2198665
3.2203794
3.2217088
3.2129712
3.2194564
3.2209963
3.2266634
3.2294318
3.2264858
3.2263226
3.2274925
3.2258170
3.2204304
3.2256452
3.2182569
3.2126430
3.2244992
3.2244244
3.2194151
3.2231677
3.2271864
3.2281559
3.2249870
3.2251387
3.2251251
3.2197751
3.2221232
3.2289811
3.2330558
3.2334304
3.2266767
3.2192896
3.2231738
3.2260787
3.2226660
3.2247002
3.2269487
3.2211783
3.2189474
3.2259817
3.2238161
3.2204901
3.2210734
3.2139464
3.2166787
3.2218107
3.2178831
3.2129422
3.2116514
3.2265978
3.2274289
3.2264791
3.2316020
3.2156725
3.2232102
3.2293076
3.2232320
3.2259906
3.2228051
3.2243188
3.2242198
3.2312714
3.2281570
3.2235103
3.2281126
3.2270542
3.2310425
3.2249530
3.2216055
3.2284040
3.2365224
3.2281689
3.2173276
3.2265578
3.2225371
3.2192047
3.2202219
3.2153394
3.2201373
3.2275799
3.2334762
3.2267656
3.2202195
3.2253471
3.2239832
3.2228095
3.2255745
3.2227844
3.2248470
3.2274718
3.2201179
3.2197679
3.2184362
3.2216170
3.2243065
3.2150273
3.2233077
3.2265337
3.2132022
3.2139355
3.2214488
3.2237582
3.2229189
3.2203959
3.2263199
3.2286180
3.2222224
3.2236149
3.2232322
3.2225212
3.2290147
3.2246375
3.2143738
3.2161064
3.2207906
3.2223172
3.2259057
3.2270337
3.2258550
3.2300077
3.2221395
3.2206830
3.2276523
3.2247464
3.2289929
3.2204600
3.2236916
3.2296886
3.2207910
3.2258673
3.2157471
3.2117206
3.2212268
3.2140148
3.2152143
3.2228721
3.2238377
3.2266384
3.2288146
3.2354164
3.2334652
3.2301977
3.2252144
3.2201944
3.2258201
3.2185870
3.2272240
3.2266074
3.2172646
3.2258311
3.2175439
3.2197973
3.2267217
3.2232584
3.2224899
3.2274734
3.2360812
3.2293200
3.2259212
3.2268460
3.2223574
3.2261096
3.2294876
3.2280486
3.2260527
3.2233065
3.2242311
3.2325112
3.2278605
3.2258302
3.2216602
3.2133816
3.2176687
3.2108179
3.2154579
3.2233569
3.2239235
3.2183962
3.2222448
3.2282588
3.2203040
3.2285844
3.2227064
3.2193821
3.2325178
3.2271059
3.2211270
3.2245373
3.2186949
3.2205244
3.2243453
3.2181078
3.2259410
3.2289412
3.2281308
3.2290219
3.2295538
3.2319649
3.2214379
3.2205185
3.2275630
3.2224706
3.2209178
3.2249702
3.2231854
3.2170935
3.2214502
3.2228450
3.2154961
3.2184033
3.2222575
3.2279984
3.2283172
3.2214487
3.2235198
3.2287719
3.2284843
3.2249483
3.2302606
3.2311190
3.2273916
3.2274373
3.2243100
3.2254525
3.2210044
3.2152375
3.2173022
3.2243584
3.2241178
3.2215636
3.2287869
3.2258148
3.2300063
3.2260618
3.2220356
3.2311841
3.2164833
3.2143614
3.2168207
3.2187217
3.2282702
3.2218661
3.2179504
3.2218763
3.2242724
3.2191679
3.2285083
3.2275047
3.2161137
3.2256329
3.2233026
3.2268407
3.2311341
3.2246331
3.2296935
3.2245505
3.2247085
3.2446619
3.2488576
3.2526693
3.2653956
3.2600803
3.2517994
3.2372142
3.2140475
3.2103231
3.1994013
3.1875467
3.1862148
3.1782209
3.1919264
3.1878731
3.1788802
3.1976561
3.2075748
3.2098311
3.1945065
3.1769046
3.1799090
3.1935862
3.1962503
3.1873313
3.1784993
3.1839560
3.2062446
3.2281425
3.2606440
3.3185880
3.4021540
3.4732354
3.5004243
3.4838803
3.4268523
3.3533393
3.2675984
3.1868721
3.1356974
3.0932932
3.0752837
3.0785277
3.0629141
3.0477693
3.0658314
3.0996449
3.1126929
3.1297193
3.1551039
3.1653572
3.1736430
3.1689808
3.1658921
3.1793401
3.1889440
3.1936783
3.2090578
3.2309682
3.2445057
3.2782109
3.3539353
3.4712537
3.5561130
3.5698304
3.5665298
3.5129957
3.4090118
3.2867526
3.1884043
3.1193607
3.0564679
3.0424222
3.0329796
3.0357050
3.0396433
3.0289525
3.0803255
3.1328111
3.1624173
3.1908724
3.2027290
3.2182868
3.2313609
3.2367334
3.2388876
3.2409534
3.2444040
3.2463816
3.2441533
3.2515323
3.2697783
3.2886754
3.2932200
3.2870777
3.2808580
3.2583209
3.2520937
3.2409594
3.2320536
3.2374386
3.2237573
3.2228064
3.2211375
3.2212348
3.2148478
3.2140414
3.2190324
3.2027688
3.2033031
3.2030041
3.1978022
3.1995491
3.1961446
3.1950000
3.1970475
3.1994139
3.1970126
3.1929226
3.2025170
3.2319197
3.2675197
3.2771192
3.2795649
3.2869613
3.2761027
3.2780568
3.2805433
3.2655911
3.2437888
3.2236377
3.2154592
3.1956874
3.1786413
3.1517803
3.1135072
3.1197406
3.1342875
3.1463813
3.1620943
3.1655505
3.1691558
3.1682395
3.1839291
3.2121402
3.2679659
3.3037778
3.3098241
3.3462466
3.3762375
3.4039051
3.3965601
3.3745282
3.3587479
3.3230142
3.2732152
3.1945013
3.1353566
3.0827688
3.0619126
3.0856090
3.0946729
3.1101436
3.1196326
3.1342506
3.1719996
3.1878852
3.1834314
3.1798823
3.1834168
3.1955413
3.1909725
3.2099643
3.2458024
3.2892689
3.3773960
3.4262769
3.4317067
3.4188826
3.3871945
3.3530480
3.2969833
3.2473801
3.2104368
3.1719105
3.1472756
3.1182518
3.0957536
3.0971952
3.0842546
3.0692593
3.0676195
3.0894573
3.1107402
3.1228049
3.1427179
3.1514280
3.1761530
3.2008416
3.2488660
3.3143221
3.3484874
3.3712116
3.3896738
3.4076528
3.4184063
3.4268540
3.4029206
3.3679664
3.3297200
3.2612257
3.2053757
3.1624298
3.1359999
3.1322280
3.1358887
3.1325085
3.1308728
3.1239797
3.1209825
3.1335187
3.1443073
3.1670769
3.1714717
3.1639744
3.1568814
3.1458193
3.1506381
3.1544107
3.1591971
3.2198796
3.3255763
3.3746926
3.3914694
3.4123578
3.4122591
3.4008603
3.3632276
3.3140047
3.2512351
3.1976246
3.1761929
3.1466184
3.1313072
3.0805663
3.0226088
3.0802882
3.1306890
3.1291376
3.1550390
3.1709415
3.1986625
3.2440900
3.2699683
3.3079766
3.3388881
3.3402925
3.3407801
3.3420058
3.3334443
3.2975011
3.2621702
3.2180211
3.1714011
3.1828753
3.2015316
3.2287089
3.2530850
3.2225844
3.1977173
3.2013061
3.1778006
3.1391231
3.1391152
3.1465340
3.1625290
3.1794040
3.1674675
3.1458076
3.1371528
3.1631898
3.1975042
3.2188080
3.2495421
3.2938775
3.3042547
3.3180934
3.3385358
3.3225137
3.3310167
3.3262076
3.3090098
3.3137887
3.2700118
3.2319755
3.2205352
3.1816428
3.1578254
3.1750050
3.1973901
3.1569480
3.1041149
3.0846641
3.0704910
3.0873236
3.1093684
3.1638000
3.2373059
3.2693627
3.3075604
3.3364872
3.3458270
3.3594465
3.3631548
3.3613879
3.3411009
3.2717744
3.1855562
3.1228261
3.0795287
3.1049682
3.1526385
3.1623639
3.1723507
3.1880769
3.2303747
3.2558924
3.2532063
3.2454482
3.2259902
3.2184100
3.2101796
3.1907388
3.2042367
3.2383347
3.2667139
3.3166924
3.3278499
3.3293722
3.3456921
3.3369903
3.3279822
3.2942341
3.2472424
3.1878818
3.1310402
3.1091797
3.0989005
3.1069772
3.1353374
3.1386459
3.1189610
3.1302434
3.1379927
3.1292007
3.1478583
3.1513056
3.1553961
3.1855653
3.2305887
3.2717688
3.2827650
3.2988039
3.3024209
3.3378209
3.3852088
3.4148446
3.4505109
3.4207730
3.3709757
3.3138014
3.2512336
3.1999026
3.1528143
3.1444058
3.1644311
3.1533471
3.1057755
3.0939294
3.1104198
3.1450019
3.1523887
3.1535617
3.1861071
3.1790562
3.1608640
3.1638086
3.1843621
3.2112446
3.2536099
3.2893458
3.3081014
3.3322130
3.3391122
3.3349078
3.3116389
3.2842387
3.2425777
3.2199394
3.2252183
3.2034203
3.1887382
3.1833138
3.2074902
3.2194574
3.2037450
3.1942051
3.1682911
3.1414933
3.1096831
3.1109708
3.1310322
3.1584054
3.1813693
3.1678411
3.2037856
3.2528695
3.2915439
3.3559625
3.3868309
3.4094967
3.4264994
3.4303799
3.4102484
3.3447936
3.2596758
3.1420816
3.0815979
3.0927441
3.1285751
3.1772713
3.1666037
3.1421422
3.1454598
3.1487592
3.1530047
3.1567057
3.1658241
3.1848815
3.1935953
3.2001236
3.2204766
3.2448506
3.2575576
3.2595780
3.2787767
3.2782426
3.2645652
3.2620858
3.2456838
3.2774941
3.2862210
3.2347113
3.2354633
3.2247964
3.2523751
3.3012359
3.2630657
3.2239331
3.1726864
3.1465141
3.1465278
3.1510890
3.1572387
3.1460213
3.1578957
3.1292894
3.0983496
3.1051610
3.1678922
3.2606352
3.3182100
3.3782718
3.4165182
3.4333437
3.4493734
3.4417863
3.3387897
3.2145402
3.1641072
3.1218804
3.1226720
3.1549784
3.1778402
3.2035506
3.1892235
3.1433459
3.1137031
3.1185226
3.1462790
3.1614757
3.1645175
3.1735921
3.1920688
3.2066129
3.2117094
3.2316890
3.2542571
3.2864231
3.3134361
3.3343201
3.3544740
3.3386647
3.3325271
3.3138636
3.2651437
3.2180617
3.1894839
3.1792533
3.1472351
3.1326674
3.1343253
3.1147790
3.1026277
3.1208741
3.1441960
3.1605867
3.1781334
3.1954720
3.2301941
3.2721687
3.3060971
3.3164165
3.3318398
3.3733662
3.3937080
3.3782816
3.3511479
3.2951095
3.2166937
3.1896845
3.1682710
3.1333124
3.1160744
3.1285932
3.1683489
3.1862340
3.1993416
3.1704696
3.1275288
3.1421148
3.1622228
3.1583913
3.1936915
3.2304400
3.2197161
3.2477385
3.2597020
3.2794954
3.2899220
3.2480780
3.2619639
3.2989820
3.3570022
3.3741438
3.3933958
3.3933302
3.2998909
3.2266385
3.0719953
2.9726412
3.0087340
3.0215104
3.0391404
3.0644395
3.1022328
3.1530087
3.2229932
3.2553285
3.2591791
3.2715171
3.2743683
3.3114476
3.3618325
3.3872295
3.3967324
3.4118795
3.3984924
3.3691885
3.3347074
3.2657734
3.1751056
3.1317105
3.1229984
3.1013845
3.1476170
3.1663400
3.1231114
3.1022813
3.1105653
3.1437714
3.1541788
3.1566939
3.1572673
3.1666477
3.1810253
3.2058192
3.2294935
3.2486566
3.3040663
3.3408205
3.3569577
3.3541267
3.3462624
3.3561587
3.3278052
3.2607192
3.1651139
3.1202414
3.1801267
3.1977682
3.2015555
3.2714808
3.2820166
3.2449889
3.2098272
3.1678497
3.1418851
3.1420651
3.1533439
3.1618812
3.1784567
3.1947646
3.1961683
3.1972773
3.2292365
3.2661099
3.2756070
3.2613450
3.2718614
3.3111656
3.3261358
3.2907584
3.2060695
3.1497669
3.1685335
3.2141214
3.2122695
3.1923405
3.1910598
3.1915597
3.1972332
3.1987283
3.2225335
3.2344937
3.2051750
3.1862871
3.1933434
3.1960881
3.2077350
3.2393388
3.2795808
3.3332790
3.3607403
3.3637634
3.3357126
3.3007124
3.2354766
3.1214695
3.1160271
3.1577234
3.1548100
3.1643547
3.1618880
3.1707494
3.1927638
3.1997650
3.2072733
3.2101318
3.2025612
3.1872471
3.2114924
3.2645566
3.2823090
3.2956772
3.3096464
3.3135185
3.2964370
3.2348083
3.1882198
3.1789209
3.1585364
3.1269625
3.1203169
3.1334281
3.1648747
3.2138256
3.2648829
3.2845186
3.2756765
3.2769677
3.2633251
3.2722668
3.2706026
3.2565655
3.2868369
3.3093098
3.3581549
3.3535692
3.2505792
3.1555999
3.1127490
3.0756793
3.0350807
3.0789432
3.1296643
3.1537673
3.1721655
3.1803771
3.1872744
3.1827069
3.2111506
3.2384137
3.2886084
3.3557198
3.3913601
3.4205303
3.4096922
3.3348102
3.2357643
3.2078135
3.1679607
3.0812108
3.0876667
3.1263032
3.1644283
3.2153666
3.2343294
3.2370157
3.2500423
3.2774651
3.2705811
3.2518263
3.2406061
3.2209301
3.2263504
3.2294648
3.2394579
3.2532139
3.2489242
3.2218856
3.1478128
3.0959905
3.0753705
3.0977744
3.1881948
3.2505217
3.2618439
3.2533588
3.2352230
3.2493190
3.2825042
3.3074781
3.3254228
3.3002307
3.2966082
3.3164521
3.2849488
3.2293245
3.1583177
3.1306286
3.1530415
3.1633041
3.1579390
3.1690153
3.2099086
3.2178115
3.2255100
3.2380576
3.2041878
3.1960376
3.1998966
3.1955816
3.2011266
3.2061973
3.2339936
3.2374209
3.2195108
3.2353591
3.2671622
3.2847245
3.3003699
3.3100905
3.3133715
3.3212575
3.2710335
3.2234870
3.2203466
3.2145596
3.1921548
3.1329264
3.1327868
3.1628683
3.1768451
3.1987569
3.1828636
3.1831109
3.1914627
3.1895886
3.2031645
3.2056449
3.2018457
3.2015166
3.2088723
3.2178916
3.2176571
3.2194863
3.2430817
3.2800939
3.3175454
3.3525180
3.3592078
3.3453177
3.3003549
3.2344630
3.2001606
3.1498241
3.1218299
3.1438480
3.1608281
3.1827028
3.1836780
3.2006788
3.2305145
3.2518218
3.2761578
3.2463353
3.2223159
3.2186139
3.1892628
3.2015730
3.2317306
3.2193314
3.2175682
3.2328721
3.2384492
3.2442240
3.2422513
3.2316770
3.2160528
3.2149496
3.2118575
3.2148733
3.2306735
3.2359024
3.2314386
3.2099518
3.2182178
3.2211836
3.2226362
3.2366987
3.2370727
3.2332203
3.1934970
3.1831634
3.1847544
3.1992953
3.2623400
3.2391411
3.1592742
3.1830927
3.2489177
3.2517585
3.2340935
3.2416209
3.2624129
3.2684166
3.2720620
3.2534698
3.2190856
3.2136259
3.1956823
3.1677863
3.1777639
3.1806277
3.1889675
3.2132949
3.2164983
3.2507529
3.2583359
3.2552357
3.2775624
3.2740456
3.2703200
3.2244038
3.1773952
3.1628720
3.1758061
3.2199791
3.2599485
3.3001197
3.2617946
3.2054984
3.2079891
3.2077943
3.2317993
3.2206497
3.1837904
3.1795919
3.1755716
3.1837158
3.1949837
3.2195390
3.2283349
3.2279412
3.2408851
3.2489565
3.2533312
3.2201704
3.1741001
3.1751534
3.1962261
3.2040703
3.2290277
3.2288896
3.2576468
3.3101102
3.2700515
3.2301576
3.2323472
3.2394906
3.2212104
3.2008328
3.1984728
3.1943395
3.2094848
3.2202372
3.2290489
3.2206631
3.1989412
3.1853623
3.1818438
3.2064027
3.2191604
3.2270441
3.2743693
3.3222997
3.3456464
3.3561035
3.3361292
3.2776918
3.2170862
3.1863086
3.1251566
3.0682382
3.0951683
3.1154030
3.1271357
3.1626373
3.1829140
3.2109023
3.2406644
3.2740586
3.3075608
3.3026703
3.2758176
3.2651256
3.2587588
3.2414681
3.2382517
3.2281462
3.2102739
3.1872331
3.1796000
3.2063236
3.2172559
3.2336452
