-5.6662600
-5.6677900
-5.6632100
-5.6677900
-5.6662600
-5.6677900
-5.6677900
-5.6647300
-5.6601600
-5.6662600
-5.6662600
-5.6632100
-5.6662600
-5.6616800
-5.6662600
-5.6616800
-5.6632100
-5.6662600
-5.6632100
-5.6677900
-5.6662600
-5.6662600
-5.6677900
-5.6693100
-5.6647300
-5.6662600
-5.6677900
-5.6693100
-5.6662600
-5.6708400
-5.6693100
-5.6693100
-5.6677900
-5.6677900
-5.6693100
-5.6662600
-5.6708400
-5.6632100
-5.6647300
-5.6662600
-5.6662600
-5.6632100
-5.6677900
-5.6693100
-5.6677900
-5.6677900
-5.6662600
-5.6677900
-5.6677900
-5.6677900
-5.6677900
-5.6693100
-5.6677900
-5.6693100
-5.6677900
-5.6647300
-5.6632100
-5.6662600
-5.6647300
-5.6632100
-5.6662600
-5.6616800
-5.6662600
-5.6662600
-5.6677900
-5.6677900
-5.6677900
-5.6662600
-5.6693100
-5.6708400
-5.6677900
-5.6693100
-5.6738900
-5.6708400
-5.6693100
-5.6708400
-5.6677900
-5.6738900
-5.6708400
-5.6693100
-5.6708400
-5.6647300
-5.6677900
-5.6662600
-5.6677900
-5.6647300
-5.6632100
-5.6662600
-5.6647300
-5.6601600
-5.6647300
-5.6647300
-5.6677900
-5.6693100
-5.6708400
-5.6693100
-5.6647300
-5.6662600
-5.6677900
-5.6693100
-5.6738900
-5.6693100
-5.6708400
-5.6708400
-5.6677900
-5.6677900
-5.6693100
-5.6662600
-5.6693100
-5.6662600
-5.6677900
-5.6693100
-5.6693100
-5.6693100
-5.6662600
-5.6662600
-5.6632100
-5.6586300
-5.6586300
-5.6586300
-5.6586300
-5.6601600
-5.6632100
-5.6632100
-5.6601600
-5.6632100
-5.6647300
-5.6708400
-5.6738900
-5.6754200
-5.6738900
-5.6784700
-5.6769400
-5.6769400
-5.6708400
-5.6769400
-5.6693100
-5.6677900
-5.6693100
-5.6677900
-5.6662600
-5.6647300
-5.6677900
-5.6647300
-5.6662600
-5.6647300
-5.6632100
-5.6601600
-5.6647300
-5.6616800
-5.6632100
-5.6677900
-5.6647300
-5.6632100
-5.6632100
-5.6647300
-5.6632100
-5.6662600
-5.6616800
-5.6632100
-5.6647300
-5.6647300
-5.6616800
-5.6647300
-5.6616800
-5.6632100
-5.6632100
-5.6616800
-5.6647300
-5.6616800
-5.6647300
-5.6647300
-5.6632100
-5.6616800
-5.6616800
-5.6571000
-5.6616800
-5.6616800
-5.6616800
-5.6632100
-5.6616800
-5.6632100
-5.6601600
-5.6616800
-5.6632100
-5.6616800
-5.6555800
-5.6555800
-5.6601600
-5.6586300
-5.6601600
-5.6571000
-5.6632100
-5.6632100
-5.6632100
-5.6632100
-5.6616800
-5.6586300
-5.6616800
-5.6601600
-5.6601600
-5.6632100
-5.6601600
-5.6632100
-5.6601600
-5.6586300
-5.6571000
-5.6571000
-5.6555800
-5.6555800
-5.6601600
-5.6586300
-5.6571000
-5.6586300
-5.6571000
-5.6571000
-5.6571000
-5.6571000
-5.6601600
-5.6586300
-5.6586300
-5.6540500
-5.6616800
-5.6571000
-5.6555800
-5.6586300
-5.6586300
-5.6601600
-5.6586300
-5.6571000
-5.6571000
-5.6632100
-5.6586300
-5.6647300
-5.6571000
-5.6586300
-5.6555800
-5.6571000
-5.6601600
-5.6586300
-5.6586300
-5.6586300
-5.6616800
-5.6586300
-5.6586300
-5.6571000
-5.6586300
-5.6555800
-5.6586300
-5.6586300
-5.6601600
-5.6601600
-5.6586300
-5.6555800
-5.6601600
-5.6586300
-5.6540500
-5.6571000
-5.6525300
-5.6555800
-5.6586300
-5.6586300
-5.6586300
-5.6555800
-5.6586300
-5.6586300
-5.6601600
-5.6571000
-5.6571000
-5.6555800
-5.6571000
-5.6571000
-5.6571000
-5.6555800
-5.6555800
-5.6571000
-5.6571000
-5.6555800
-5.6540500
-5.6555800
-5.6525300
-5.6555800
-5.6555800
-5.6586300
-5.6571000
-5.6540500
-5.6555800
-5.6540500
-5.6586300
-5.6571000
-5.6555800
-5.6555800
-5.6555800
-5.6571000
-5.6571000
-5.6540500
-5.6555800
-5.6494800
-5.6540500
-5.6540500
-5.6540500
-5.6540500
-5.6571000
-5.6540500
-5.6555800
-5.6540500
-5.6525300
-5.6555800
-5.6510000
-5.6555800
-5.6540500
-5.6555800
-5.6555800
-5.6525300
-5.6540500
-5.6540500
-5.6555800
-5.6525300
-5.6540500
-5.6510000
-5.6540500
-5.6525300
-5.6571000
-5.6555800
-5.6540500
-5.6571000
-5.6540500
-5.6555800
-5.6555800
-5.6525300
-5.6525300
-5.6571000
-5.6540500
-5.6586300
-5.6540500
-5.6494800
-5.6494800
-5.6494800
-5.6525300
-5.6525300
-5.6494800
-5.6510000
-5.6510000
-5.6479500
-5.6555800
-5.6540500
-5.6525300
-5.6494800
-5.6525300
-5.6510000
-5.6525300
-5.6540500
-5.6555800
-5.6494800
-5.6525300
-5.6525300
-5.6525300
-5.6540500
-5.6494800
-5.6525300
-5.6540500
-5.6525300
-5.6525300
-5.6494800
-5.6525300
-5.6494800
-5.6510000
-5.6494800
-5.6510000
-5.6494800
-5.6494800
-5.6464200
-5.6464200
-5.6510000
-5.6494800
-5.6510000
-5.6525300
-5.6525300
-5.6540500
-5.6525300
-5.6540500
-5.6571000
-5.6525300
-5.6571000
-5.6540500
-5.6510000
-5.6494800
-5.6510000
-5.6540500
-5.6555800
-5.6510000
-5.6494800
-5.6510000
-5.6494800
-5.6494800
-5.6494800
-5.6525300
-5.6494800
-5.6510000
-5.6525300
-5.6525300
-5.6540500
-5.6510000
-5.6510000
-5.6494800
-5.6510000
-5.6479500
-5.6525300
-5.6464200
-5.6525300
-5.6494800
-5.6525300
-5.6525300
-5.6525300
-5.6525300
-5.6525300
-5.6494800
-5.6494800
-5.6525300
-5.6494800
-5.6510000
-5.6494800
-5.6494800
-5.6464200
-5.6494800
-5.6510000
-5.6494800
-5.6525300
-5.6510000
-5.6494800
-5.6525300
-5.6510000
-5.6510000
-5.6540500
-5.6479500
-5.6479500
-5.6510000
-5.6494800
-5.6479500
-5.6479500
-5.6479500
-5.6479500
-5.6494800
-5.6494800
-5.6510000
-5.6494800
-5.6525300
-5.6494800
-5.6510000
-5.6494800
-5.6494800
-5.6540500
-5.6525300
-5.6494800
-5.6449000
-5.6464200
-5.6494800
-5.6494800
-5.6479500
-5.6464200
-5.6494800
-5.6525300
-5.6510000
-5.6510000
-5.6494800
-5.6479500
-5.6510000
-5.6494800
-5.6479500
-5.6510000
-5.6494800
-5.6479500
-5.6479500
-5.6464200
-5.6449000
-5.6449000
-5.6403200
-5.6433700
-5.6479500
-5.6464200
-5.6464200
-5.6464200
-5.6494800
-5.6525300
-5.6479500
-5.6479500
-5.6464200
-5.6479500
-5.6510000
-5.6494800
-5.6510000
-5.6494800
-5.6525300
-5.6540500
-5.6571000
-5.6555800
-5.6601600
-5.6571000
-5.6586300
-5.6616800
-5.6616800
-5.6632100
-5.6632100
-5.6662600
-5.6647300
-5.6616800
-5.6632100
-5.6616800
-5.6586300
-5.6601600
-5.6540500
-5.6525300
-5.6525300
-5.6479500
-5.6510000
-5.6464200
-5.6494800
-5.6510000
-5.6525300
-5.6555800
-5.6555800
-5.6571000
-5.6571000
-5.6571000
-5.6555800
-5.6571000
-5.6540500
-5.6540500
-5.6494800
-5.6510000
-5.6494800
-5.6479500
-5.6494800
-5.6494800
-5.6464200
-5.6449000
-5.6403200
-5.6433700
-5.6464200
-5.6403200
-5.6449000
-5.6403200
-5.6449000
-5.6433700
-5.6433700
-5.6403200
-5.6449000
-5.6372700
-5.6449000
-5.6449000
-5.6449000
-5.6464200
-5.6449000
-5.6479500
-5.6464200
-5.6449000
-5.6449000
-5.6403200
-5.6433700
-5.6433700
-5.6387900
-5.6403200
-5.6433700
-5.6387900
-5.6449000
-5.6449000
-5.6449000
-5.6403200
-5.6387900
-5.6403200
-5.6433700
-5.6387900
-5.6433700
-5.6403200
-5.6433700
-5.6449000
-5.6433700
-5.6479500
-5.6403200
-5.6464200
-5.6464200
-5.6449000
-5.6433700
-5.6464200
-5.6433700
-5.6479500
-5.6464200
-5.6433700
-5.6449000
-5.6449000
-5.6449000
-5.6433700
-5.6449000
-5.6464200
-5.6403200
-5.6433700
-5.6449000
-5.6464200
-5.6449000
-5.6479500
-5.6464200
-5.6479500
-5.6479500
-5.6510000
-5.6479500
-5.6464200
-5.6449000
-5.6479500
-5.6433700
-5.6510000
-5.6479500
-5.6479500
-5.6525300
-5.6464200
-5.6464200
-5.6464200
-5.6464200
-5.6464200
-5.6479500
-5.6449000
-5.6479500
-5.6479500
-5.6464200
-5.6433700
-5.6464200
-5.6464200
-5.6479500
-5.6449000
-5.6403200
-5.6403200
-5.6433700
-5.6479500
-5.6449000
-5.6494800
-5.6449000
-5.6464200
-5.6433700
-5.6403200
-5.6464200
-5.6449000
-5.6449000
-5.6449000
-5.6449000
-5.6449000
-5.6449000
-5.6449000
-5.6479500
-5.6494800
-5.6479500
-5.6510000
-5.6479500
-5.6464200
-5.6494800
-5.6479500
-5.6449000
-5.6449000
-5.6464200
-5.6479500
-5.6479500
-5.6510000
-5.6479500
-5.6479500
-5.6494800
-5.6464200
-5.6449000
-5.6449000
-5.6464200
-5.6494800
-5.6494800
-5.6479500
-5.6479500
-5.6479500
-5.6449000
-5.6449000
-5.6494800
-5.6510000
-5.6464200
-5.6494800
-5.6494800
-5.6525300
-5.6510000
-5.6555800
-5.6571000
-5.6555800
-5.6525300
-5.6540500
-5.6555800
-5.6525300
-5.6525300
-5.6555800
-5.6571000
-5.6525300
-5.6510000
-5.6540500
-5.6525300
-5.6525300
-5.6540500
-5.6494800
-5.6510000
-5.6510000
-5.6510000
-5.6494800
-5.6510000
-5.6510000
-5.6494800
-5.6494800
-5.6479500
-5.6464200
-5.6464200
-5.6479500
-5.6494800
-5.6449000
-5.6510000
-5.6464200
-5.6464200
-5.6494800
-5.6510000
-5.6479500
-5.6464200
-5.6479500
-5.6479500
-5.6479500
-5.6464200
-5.6494800
-5.6449000
-5.6479500
-5.6479500
-5.6510000
-5.6510000
-5.6494800
-5.6479500
-5.6525300
-5.6510000
-5.6510000
-5.6494800
-5.6510000
-5.6449000
-5.6464200
-5.6464200
-5.6479500
-5.6464200
-5.6433700
-5.6433700
-5.6479500
-5.6494800
-5.6494800
-5.6464200
-5.6479500
-5.6494800
-5.6525300
-5.6525300
-5.6510000
-5.6510000
-5.6494800
-5.6494800
-5.6479500
-5.6464200
-5.6494800
-5.6479500
-5.6510000
-5.6479500
-5.6494800
-5.6449000
-5.6449000
-5.6433700
-5.6479500
-5.6449000
-5.6464200
-5.6479500
-5.6449000
-5.6449000
-5.6464200
-5.6433700
-5.6403200
-5.6403200
-5.6433700
-5.6433700
-5.6387900
-5.6449000
-5.6449000
-5.6433700
-5.6433700
-5.6433700
-5.6464200
-5.6449000
-5.6449000
-5.6449000
-5.6449000
-5.6403200
-5.6464200
-5.6433700
-5.6449000
-5.6433700
-5.6403200
-5.6403200
-5.6403200
-5.6433700
-5.6433700
-5.6403200
-5.6449000
-5.6449000
-5.6433700
-5.6433700
-5.6433700
-5.6403200
-5.6403200
-5.6372700
-5.6433700
-5.6433700
-5.6433700
-5.6433700
-5.6403200
-5.6403200
-5.6403200
-5.6387900
-5.6433700
-5.6433700
-5.6357400
-5.6403200
-5.6433700
-5.6433700
-5.6387900
-5.6403200
-5.6372700
-5.6372700
-5.6372700
-5.6403200
-5.6433700
-5.6387900
-5.6372700
-5.6342200
-5.6372700
-5.6357400
-5.6387900
-5.6387900
-5.6387900
-5.6387900
-5.6403200
-5.6403200
-5.6403200
-5.6372700
-5.6372700
-5.6387900
-5.6403200
-5.6372700
-5.6357400
-5.6403200
-5.6387900
-5.6372700
-5.6403200
-5.6433700
-5.6403200
-5.6403200
-5.6372700
-5.6387900
-5.6387900
-5.6357400
-5.6357400
-5.6372700
-5.6387900
-5.6387900
-5.6403200
-5.6433700
-5.6433700
-5.6342200
-5.6387900
-5.6357400
-5.6357400
-5.6387900
-5.6357400
-5.6342200
-5.6326900
-5.6342200
-5.6342200
-5.6357400
-5.6357400
-5.6372700
-5.6387900
-5.6403200
-5.6433700
-5.6387900
-5.6372700
-5.6403200
-5.6433700
-5.6387900
-5.6387900
-5.6387900
-5.6403200
-5.6357400
-5.6433700
-5.6357400
-5.6342200
-5.6387900
-5.6403200
-5.6372700
-5.6372700
-5.6387900
-5.6403200
-5.6403200
-5.6372700
-5.6387900
-5.6342200
-5.6433700
-5.6342200
-5.6372700
-5.6372700
-5.6357400
-5.6372700
-5.6387900
-5.6387900
-5.6403200
-5.6357400
-5.6357400
-5.6326900
-5.6326900
-5.6357400
-5.6357400
-5.6342200
-5.6372700
-5.6372700
-5.6357400
-5.6372700
-5.6387900
-5.6372700
-5.6387900
-5.6357400
-5.6357400
-5.6403200
-5.6387900
-5.6372700
-5.6372700
-5.6372700
-5.6372700
-5.6372700
-5.6372700
-5.6387900
-5.6357400
-5.6372700
-5.6372700
-5.6403200
-5.6326900
-5.6357400
-5.6387900
-5.6387900
-5.6357400
-5.6387900
-5.6387900
-5.6372700
-5.6449000
-5.6403200
-5.6433700
-5.6403200
-5.6357400
-5.6357400
-5.6387900
-5.6357400
-5.6342200
-5.6357400
-5.6372700
-5.6372700
-5.6403200
-5.6403200
-5.6387900
-5.6403200
-5.6311600
-5.6357400
-5.6357400
-5.6357400
-5.6372700
-5.6342200
-5.6372700
-5.6372700
-5.6357400
-5.6342200
-5.6342200
-5.6311600
-5.6342200
-5.6357400
-5.6342200
-5.6372700
-5.6342200
-5.6387900
-5.6357400
-5.6357400
-5.6342200
-5.6357400
-5.6326900
-5.6342200
-5.6342200
-5.6403200
-5.6357400
-5.6372700
-5.6357400
-5.6342200
-5.6372700
-5.6372700
-5.6403200
-5.6357400
-5.6387900
-5.6372700
-5.6387900
-5.6387900
-5.6372700
-5.6357400
-5.6387900
-5.6342200
-5.6387900
-5.6342200
-5.6357400
-5.6372700
-5.6372700
-5.6387900
-5.6387900
-5.6372700
-5.6357400
-5.6372700
-5.6387900
-5.6342200
-5.6372700
-5.6326900
-5.6296400
-5.6311600
-5.6326900
-5.6342200
-5.6326900
-5.6311600
-5.6372700
-5.6387900
-5.6387900
-5.6372700
-5.6326900
-5.6372700
-5.6403200
-5.6372700
-5.6357400
-5.6372700
-5.6326900
-5.6372700
-5.6357400
-5.6372700
-5.6342200
-5.6326900
-5.6326900
-5.6326900
-5.6326900
-5.6342200
-5.6357400
-5.6342200
-5.6342200
-5.6357400
-5.6387900
-5.6357400
-5.6387900
-5.6342200
-5.6387900
-5.6403200
-5.6372700
-5.6387900
-5.6342200
-5.6387900
-5.6342200
-5.6357400
-5.6357400
-5.6387900
-5.6357400
-5.6357400
-5.6372700
-5.6357400
-5.6372700
-5.6357400
-5.6357400
-5.6342200
-5.6357400
-5.6357400
-5.6342200
-5.6311600
-5.6342200
-5.6326900
-5.6372700
-5.6372700
-5.6357400
-5.6357400
-5.6357400
-5.6357400
-5.6326900
-5.6372700
-5.6326900
-5.6342200
-5.6342200
-5.6342200
-5.6342200
-5.6357400
-5.6357400
-5.6342200
-5.6326900
-5.6342200
-5.6357400
-5.6311600
-5.6326900
-5.6311600
-5.6387900
-5.6326900
-5.6326900
-5.6311600
-5.6326900
-5.6372700
-5.6326900
-5.6311600
-5.6357400
-5.6357400
-5.6326900
-5.6326900
-5.6357400
-5.6342200
-5.6357400
-5.6357400
-5.6372700
-5.6372700
-5.6372700
-5.6372700
-5.6372700
-5.6372700
-5.6357400
-5.6342200
-5.6342200
-5.6296400
-5.6342200
-5.6342200
-5.6326900
-5.6326900
-5.6342200
-5.6342200
-5.6342200
-5.6357400
-5.6342200
-5.6372700
-5.6372700
-5.6357400
-5.6326900
-5.6342200
-5.6326900
-5.6326900
-5.6326900
-5.6281100
-5.6342200
-5.6357400
-5.6357400
-5.6372700
-5.6372700
-5.6357400
-5.6387900
-5.6326900
-5.6326900
-5.6326900
-5.6342200
-5.6357400
-5.6342200
-5.6342200
-5.6342200
-5.6372700
-5.6372700
-5.6387900
-5.6342200
-5.6357400
-5.6326900
-5.6342200
-5.6372700
-5.6326900
-5.6357400
-5.6311600
-5.6311600
-5.6326900
-5.6342200
-5.6326900
-5.6342200
-5.6342200
-5.6326900
-5.6357400
-5.6342200
-5.6357400
-5.6357400
-5.6403200
-5.6372700
-5.6372700
-5.6326900
-5.6357400
-5.6342200
-5.6387900
-5.6326900
-5.6357400
-5.6296400
-5.6296400
-5.6311600
-5.6296400
-5.6326900
-5.6296400
-5.6326900
-5.6296400
-5.6326900
-5.6281100
-5.6342200
-5.6326900
-5.6311600
-5.6326900
-5.6311600
-5.6357400
-5.6342200
-5.6342200
-5.6342200
-5.6387900
-5.6403200
-5.6403200
-5.6433700
-5.6433700
-5.6449000
-5.6479500
-5.6494800
-5.6449000
-5.6479500
-5.6464200
-5.6494800
-5.6449000
-5.6433700
-5.6387900
-5.6372700
-5.6357400
-5.6357400
-5.6372700
-5.6387900
-5.6387900
-5.6357400
-5.6372700
-5.6372700
-5.6387900
-5.6372700
-5.6387900
-5.6387900
-5.6387900
-5.6387900
-5.6357400
-5.6357400
-5.6372700
-5.6357400
-5.6357400
-5.6342200
-5.6311600
-5.6357400
-5.6372700
-5.6357400
-5.6357400
-5.6357400
-5.6311600
-5.6326900
-5.6296400
-5.6296400
-5.6311600
-5.6311600
-5.6311600
-5.6326900
-5.6357400
-5.6311600
-5.6342200
-5.6342200
-5.6372700
-5.6357400
-5.6357400
-5.6357400
-5.6372700
-5.6372700
-5.6357400
-5.6372700
-5.6326900
-5.6342200
-5.6326900
-5.6311600
-5.6342200
-5.6311600
-5.6342200
-5.6342200
-5.6372700
-5.6326900
-5.6342200
-5.6342200
-5.6387900
-5.6357400
-5.6342200
-5.6357400
-5.6387900
-5.6372700
-5.6357400
-5.6342200
-5.6326900
-5.6357400
-5.6342200
-5.6326900
-5.6326900
-5.6342200
-5.6326900
-5.6326900
-5.6357400
-5.6342200
-5.6311600
-5.6311600
-5.6311600
-5.6326900
-5.6326900
-5.6311600
-5.6326900
-5.6326900
-5.6326900
-5.6326900
-5.6357400
-5.6342200
-5.6326900
-5.6311600
-5.6326900
-5.6357400
-5.6311600
-5.6326900
-5.6311600
-5.6342200
-5.6296400
-5.6326900
-5.6311600
-5.6342200
-5.6281100
-5.6326900
-5.6296400
-5.6342200
-5.6372700
-5.6342200
-5.6342200
-5.6357400
-5.6387900
-5.6342200
-5.6372700
-5.6326900
-5.6387900
-5.6326900
-5.6326900
-5.6342200
-5.6311600
-5.6357400
-5.6357400
-5.6342200
-5.6326900
-5.6357400
-5.6342200
-5.6357400
-5.6357400
-5.6357400
-5.6357400
-5.6372700
-5.6357400
-5.6326900
-5.6357400
-5.6342200
-5.6372700
-5.6326900
-5.6311600
-5.6342200
-5.6342200
-5.6326900
-5.6342200
-5.6372700
-5.6342200
-5.6326900
-5.6357400
-5.6372700
-5.6357400
-5.6357400
-5.6357400
-5.6326900
-5.6342200
-5.6357400
-5.6326900
-5.6357400
-5.6372700
-5.6372700
-5.6387900
-5.6372700
-5.6342200
-5.6342200
-5.6357400
-5.6326900
-5.6342200
-5.6296400
-5.6326900
-5.6311600
-5.6296400
-5.6265900
-5.6311600
-5.6342200
-5.6311600
-5.6342200
-5.6296400
-5.6342200
-5.6342200
-5.6357400
-5.6342200
-5.6387900
-5.6342200
-5.6342200
-5.6311600
-5.6311600
-5.6342200
-5.6311600
-5.6296400
-5.6296400
-5.6281100
-5.6311600
-5.6296400
-5.6296400
-5.6311600
-5.6311600
-5.6342200
-5.6357400
-5.6387900
-5.6326900
-5.6326900
-5.6357400
-5.6342200
-5.6357400
-5.6311600
-5.6342200
-5.6342200
-5.6372700
-5.6342200
-5.6372700
-5.6357400
-5.6357400
-5.6311600
-5.6342200
-5.6372700
-5.6326900
-5.6326900
-5.6342200
-5.6342200
-5.6326900
-5.6326900
-5.6311600
-5.6296400
-5.6296400
-5.6296400
-5.6296400
-5.6311600
-5.6342200
-5.6342200
-5.6357400
-5.6357400
-5.6357400
-5.6326900
-5.6311600
-5.6326900
-5.6357400
-5.6326900
-5.6357400
-5.6326900
-5.6342200
-5.6296400
-5.6281100
-5.6326900
-5.6265900
-5.6281100
-5.6296400
-5.6326900
-5.6326900
-5.6326900
-5.6296400
-5.6326900
-5.6342200
-5.6311600
-5.6326900
-5.6296400
-5.6311600
-5.6326900
-5.6311600
-5.6296400
-5.6296400
-5.6326900
-5.6296400
-5.6250600
-5.6326900
-5.6296400
-5.6281100
-5.6296400
-5.6265900
-5.6265900
-5.6250600
-5.6220100
-5.6220100
-5.6235400
-5.6235400
-5.6220100
-5.6250600
-5.6265900
-5.6281100
-5.6250600
-5.6281100
-5.6265900
-5.6265900
-5.6281100
-5.6281100
-5.6281100
-5.6296400
-5.6265900
-5.6342200
-5.6265900
-5.6265900
-5.6281100
-5.6296400
-5.6326900
-5.6296400
-5.6326900
-5.6311600
-5.6296400
-5.6296400
-5.6296400
-5.6311600
-5.6250600
-5.6296400
-5.6281100
-5.6281100
-5.6250600
-5.6281100
-5.6281100
-5.6281100
-5.6281100
-5.6281100
-5.6265900
-5.6296400
-5.6235400
-5.6250600
-5.6265900
-5.6265900
-5.6281100
-5.6265900
-5.6281100
-5.6281100
-5.6296400
-5.6265900
-5.6281100
-5.6235400
-5.6250600
-5.6235400
-5.6265900
-5.6296400
-5.6265900
-5.6281100
-5.6281100
-5.6296400
-5.6250600
-5.6250600
-5.6265900
-5.6250600
-5.6250600
-5.6281100
-5.6250600
-5.6235400
-5.6235400
-5.6204800
-5.6265900
-5.6220100
-5.6235400
-5.6220100
-5.6235400
-5.6250600
-5.6281100
-5.6250600
-5.6250600
-5.6235400
-5.6250600
-5.6281100
-5.6220100
-5.6265900
-5.6250600
-5.6250600
-5.6296400
-5.6281100
-5.6265900
-5.6235400
-5.6220100
-5.6265900
-5.6281100
-5.6250600
-5.6250600
-5.6265900
-5.6250600
-5.6250600
-5.6250600
-5.6235400
-5.6220100
-5.6220100
-5.6250600
-5.6296400
-5.6281100
-5.6265900
-5.6250600
-5.6250600
-5.6265900
-5.6250600
-5.6265900
-5.6296400
-5.6250600
-5.6296400
-5.6281100
-5.6281100
-5.6235400
-5.6265900
-5.6265900
-5.6281100
-5.6296400
-5.6281100
-5.6296400
-5.6296400
-5.6326900
-5.6326900
-5.6326900
-5.6296400
-5.6281100
-5.6235400
-5.6311600
-5.6296400
-5.6296400
-5.6281100
-5.6281100
-5.6296400
-5.6281100
-5.6265900
-5.6265900
-5.6265900
-5.6250600
-5.6250600
-5.6281100
-5.6250600
-5.6311600
-5.6281100
-5.6281100
-5.6250600
-5.6265900
-5.6250600
-5.6250600
-5.6220100
-5.6220100
-5.6235400
-5.6265900
-5.6204800
-5.6220100
-5.6265900
-5.6235400
-5.6235400
-5.6250600
-5.6235400
-5.6204800
-5.6250600
-5.6235400
-5.6265900
-5.6235400
-5.6204800
-5.6235400
-5.6189600
-5.6220100
-5.6250600
-5.6235400
-5.6220100
-5.6235400
-5.6220100
-5.6235400
-5.6220100
-5.6189600
-5.6189600
-5.6204800
-5.6220100
-5.6220100
-5.6189600
-5.6204800
-5.6204800
-5.6220100
-5.6235400
-5.6235400
-5.6235400
-5.6174300
-5.6235400
-5.6204800
-5.6189600
-5.6220100
-5.6204800
-5.6220100
-5.6204800
-5.6204800
-5.6204800
-5.6204800
-5.6204800
-5.6235400
-5.6235400
-5.6235400
-5.6220100
-5.6189600
-5.6235400
-5.6250600
-5.6250600
-5.6235400
-5.6204800
-5.6189600
-5.6189600
-5.6204800
-5.6250600
-5.6159100
-5.6204800
-5.6189600
-5.6204800
-5.6220100
-5.6189600
-5.6250600
-5.6220100
-5.6204800
-5.6189600
-5.6204800
-5.6189600
-5.6174300
-5.6159100
-5.6174300
-5.6189600
-5.6220100
-5.6174300
-5.6174300
-5.6189600
-5.6189600
-5.6189600
-5.6189600
-5.6189600
-5.6174300
-5.6189600
-5.6189600
-5.6220100
-5.6235400
-5.6204800
-5.6220100
-5.6235400
-5.6204800
-5.6220100
-5.6235400
-5.6204800
-5.6265900
-5.6265900
-5.6204800
-5.6250600
-5.6220100
-5.6250600
-5.6220100
-5.6235400
-5.6220100
-5.6250600
-5.6204800
-5.6235400
-5.6220100
-5.6235400
-5.6235400
-5.6220100
-5.6250600
-5.6220100
-5.6265900
-5.6265900
-5.6235400
-5.6204800
-5.6204800
-5.6220100
-5.6265900
-5.6220100
-5.6220100
-5.6235400
-5.6220100
-5.6235400
-5.6174300
-5.6189600
-5.6189600
-5.6204800
-5.6204800
-5.6220100
-5.6204800
-5.6204800
-5.6174300
-5.6220100
-5.6189600
-5.6235400
-5.6220100
-5.6204800
-5.6204800
-5.6235400
-5.6220100
-5.6220100
-5.6204800
-5.6204800
-5.6220100
-5.6235400
-5.6235400
-5.6265900
-5.6235400
-5.6220100
-5.6265900
-5.6250600
-5.6250600
-5.6265900
-5.6220100
-5.6235400
-5.6220100
-5.6235400
-5.6189600
-5.6220100
-5.6204800
-5.6204800
-5.6204800
-5.6220100
-5.6235400
-5.6189600
-5.6235400
-5.6220100
-5.6281100
-5.6250600
-5.6250600
-5.6204800
-5.6204800
-5.6220100
-5.6189600
-5.6189600
-5.6204800
-5.6250600
-5.6235400
-5.6220100
-5.6250600
-5.6235400
-5.6220100
-5.6250600
-5.6235400
-5.6235400
-5.6281100
-5.6235400
-5.6250600
-5.6235400
-5.6265900
-5.6250600
-5.6235400
-5.6250600
-5.6250600
-5.6250600
-5.6265900
-5.6265900
-5.6220100
-5.6281100
-5.6281100
-5.6250600
-5.6265900
-5.6281100
-5.6265900
-5.6281100
-5.6250600
-5.6281100
-5.6265900
-5.6250600
-5.6265900
-5.6296400
-5.6281100
-5.6296400
-5.6326900
-5.6250600
-5.6281100
-5.6265900
-5.6265900
-5.6281100
-5.6296400
-5.6235400
-5.6250600
-5.6235400
-5.6235400
-5.6235400
-5.6250600
-5.6235400
-5.6220100
-5.6204800
-5.6204800
-5.6265900
-5.6204800
-5.6265900
-5.6235400
-5.6250600
-5.6250600
-5.6250600
-5.6250600
-5.6265900
-5.6250600
-5.6220100
-5.6220100
-5.6204800
-5.6250600
-5.6281100
-5.6265900
-5.6281100
-5.6296400
-5.6311600
-5.6326900
-5.6311600
-5.6342200
-5.6357400
-5.6372700
-5.6403200
-5.6372700
-5.6403200
-5.6433700
-5.6433700
-5.6449000
-5.6433700
-5.6387900
-5.6387900
-5.6433700
-5.6357400
-5.6372700
-5.6357400
-5.6357400
-5.6357400
-5.6326900
-5.6342200
-5.6326900
-5.6357400
-5.6342200
-5.6342200
-5.6326900
-5.6357400
-5.6326900
-5.6342200
-5.6342200
-5.6342200
-5.6311600
-5.6326900
-5.6342200
-5.6342200
-5.6342200
-5.6311600
-5.6311600
-5.6296400
-5.6296400
-5.6265900
-5.6265900
-5.6265900
-5.6296400
-5.6281100
-5.6326900
-5.6311600
-5.6296400
-5.6265900
-5.6281100
-5.6265900
-5.6265900
-5.6250600
-5.6235400
-5.6281100
-5.6235400
-5.6281100
-5.6265900
-5.6265900
-5.6250600
-5.6265900
-5.6281100
-5.6235400
-5.6265900
-5.6235400
-5.6296400
-5.6235400
-5.6265900
-5.6250600
-5.6250600
-5.6235400
-5.6250600
-5.6281100
-5.6250600
-5.6281100
-5.6265900
-5.6311600
-5.6296400
-5.6281100
-5.6265900
-5.6281100
-5.6265900
-5.6281100
-5.6281100
-5.6265900
-5.6281100
-5.6281100
-5.6311600
-5.6265900
-5.6265900
-5.6250600
-5.6235400
-5.6250600
-5.6265900
-5.6250600
-5.6265900
-5.6265900
-5.6250600
-5.6265900
-5.6265900
-5.6250600
-5.6250600
-5.6250600
-5.6220100
-5.6250600
-5.6250600
-5.6265900
-5.6250600
-5.6220100
-5.6281100
-5.6250600
-5.6250600
-5.6220100
-5.6281100
-5.6250600
-5.6265900
-5.6265900
-5.6265900
-5.6220100
-5.6220100
-5.6235400
-5.6235400
-5.6250600
-5.6235400
-5.6204800
-5.6220100
-5.6189600
-5.6220100
-5.6204800
-5.6204800
-5.6189600
-5.6204800
-5.6204800
-5.6250600
-5.6204800
-5.6220100
-5.6204800
-5.6220100
-5.6204800
-5.6189600
-5.6174300
-5.6189600
-5.6204800
-5.6204800
-5.6204800
-5.6220100
-5.6220100
-5.6189600
-5.6235400
-5.6189600
-5.6204800
-5.6235400
-5.6235400
-5.6204800
-5.6265900
-5.6220100
-5.6220100
-5.6204800
-5.6220100
-5.6204800
-5.6220100
-5.6220100
-5.6204800
-5.6204800
-5.6220100
-5.6235400
-5.6189600
-5.6204800
-5.6220100
-5.6174300
-5.6189600
-5.6174300
-5.6189600
-5.6189600
-5.6220100
-5.6189600
-5.6220100
-5.6189600
-5.6204800
-5.6220100
-5.6235400
-5.6220100
-5.6220100
-5.6220100
-5.6220100
-5.6204800
-5.6189600
-5.6220100
-5.6204800
-5.6189600
-5.6174300
-5.6174300
-5.6204800
-5.6204800
-5.6204800
-5.6189600
-5.6204800
-5.6189600
-5.6143800
-5.6189600
-5.6189600
-5.6189600
-5.6204800
-5.6174300
-5.6174300
-5.6174300
-5.6174300
-5.6143800
-5.6143800
-5.6143800
-5.6174300
-5.6174300
-5.6159100
-5.6174300
-5.6159100
-5.6220100
-5.6189600
-5.6220100
-5.6189600
-5.6174300
-5.6174300
-5.6098000
-5.6189600
-5.6189600
-5.6174300
-5.6143800
-5.6174300
-5.6174300
-5.6189600
-5.6143800
-5.6204800
-5.6159100
-5.6174300
-5.6159100
-5.6174300
-5.6143800
-5.6174300
-5.6189600
-5.6159100
-5.6159100
-5.6143800
-5.6174300
-5.6128500
-5.6159100
-5.6159100
-5.6143800
-5.6189600
-5.6159100
-5.6143800
-5.6143800
-5.6174300
-5.6174300
-5.6174300
-5.6174300
-5.6204800
-5.6159100
-5.6159100
-5.6082800
-5.6143800
-5.6128500
-5.6143800
-5.6159100
-5.6082800
-5.6143800
-5.6128500
-5.6189600
-5.6159100
-5.6143800
-5.6159100
-5.6143800
-5.6159100
-5.6098000
-5.6128500
-5.6128500
-5.6128500
-5.6143800
-5.6159100
-5.6128500
-5.6159100
-5.6128500
-5.6143800
-5.6128500
-5.6098000
-5.6143800
-5.6143800
-5.6143800
-5.6143800
-5.6128500
-5.6128500
-5.6128500
-5.6098000
-5.6098000
-5.6143800
-5.6159100
-5.6128500
-5.6128500
-5.6098000
-5.6098000
-5.6098000
-5.6128500
-5.6143800
-5.6143800
-5.6128500
-5.6098000
-5.6159100
-5.6098000
-5.6143800
-5.6143800
-5.6098000
-5.6098000
-5.6098000
-5.6098000
-5.6052200
-5.6128500
-5.6098000
-5.6159100
-5.6098000
-5.6098000
-5.6067500
-5.6082800
-5.6067500
-5.6067500
-5.6128500
-5.6143800
-5.6098000
-5.6128500
-5.6143800
-5.6143800
-5.6143800
-5.6143800
-5.6159100
-5.6128500
-5.6143800
-5.6143800
-5.6159100
-5.6143800
-5.6159100
-5.6143800
-5.6143800
-5.6143800
-5.6082800
-5.6128500
-5.6143800
-5.6143800
-5.6128500
-5.6128500
-5.6082800
-5.6082800
-5.6082800
-5.6159100
-5.6098000
-5.6128500
-5.6128500
-5.6098000
-5.6143800
-5.6098000
-5.6098000
-5.6082800
-5.6128500
-5.6128500
-5.6098000
-5.6128500
-5.6082800
-5.6098000
-5.6098000
-5.6082800
-5.6082800
-5.6098000
-5.6067500
-5.6067500
-5.6128500
-5.6082800
-5.6067500
-5.6098000
-5.6082800
-5.6037000
-5.6067500
-5.6067500
-5.6067500
-5.6098000
-5.6128500
-5.6067500
-5.6098000
-5.6067500
-5.6082800
-5.6067500
-5.6082800
-5.6082800
-5.6082800
-5.6082800
-5.6052200
-5.6067500
-5.6067500
-5.6067500
-5.6067500
-5.6052200
-5.6052200
-5.6037000
-5.6021700
-5.6067500
-5.6067500
-5.6037000
-5.6067500
-5.6067500
-5.6052200
-5.6098000
-5.6067500
-5.6037000
-5.6021700
-5.6021700
-5.6037000
-5.6067500
-5.6067500
-5.6052200
-5.6037000
-5.6052200
-5.6067500
-5.6052200
-5.6037000
-5.6037000
-5.6037000
-5.6052200
-5.6067500
-5.6082800
-5.6037000
-5.6021700
-5.6052200
-5.6037000
-5.6082800
-5.6067500
-5.6052200
-5.6037000
-5.6067500
-5.6052200
-5.6067500
-5.6052200
-5.6052200
-5.6052200
-5.6052200
-5.6067500
-5.6052200
-5.6082800
-5.6052200
-5.6082800
-5.6067500
-5.6082800
-5.6082800
-5.6037000
-5.6037000
-5.6082800
-5.6052200
-5.6052200
-5.6037000
-5.6052200
-5.6052200
-5.6052200
-5.6067500
-5.6052200
-5.6037000
-5.6021700
-5.6037000
-5.6067500
-5.6082800
-5.6052200
-5.6082800
-5.6052200
-5.6067500
-5.6082800
-5.6037000
-5.6006500
-5.6037000
-5.6037000
-5.6052200
-5.6098000
-5.6006500
-5.6021700
-5.6037000
-5.5991200
-5.6037000
-5.6006500
-5.6006500
-5.6021700
-5.6052200
-5.6037000
-5.6021700
-5.6037000
-5.6021700
-5.5991200
-5.6006500
-5.6021700
-5.6021700
-5.6021700
-5.6006500
-5.6006500
-5.5991200
-5.6006500
-5.6006500
-5.5991200
-5.5960700
-5.6021700
-5.6006500
-5.6021700
-5.6021700
-5.6021700
-5.5991200
-5.6006500
-5.6006500
-5.5976000
-5.6006500
-5.5945400
-5.5991200
-5.5991200
-5.5991200
-5.5991200
-5.5991200
-5.5976000
-5.5960700
-5.5976000
-5.5976000
-5.5991200
-5.5991200
-5.5960700
-5.6006500
-5.6037000
-5.5991200
-5.6021700
-5.5991200
-5.5991200
-5.5991200
-5.5991200
-5.6021700
-5.6006500
-5.6021700
-5.6037000
-5.6052200
-5.6021700
-5.6006500
-5.5991200
-5.6006500
-5.6021700
-5.6006500
-5.5976000
-5.5991200
-5.6021700
-5.6006500
-5.6037000
-5.6006500
-5.6021700
-5.6021700
-5.6037000
-5.6037000
-5.6021700
-5.6006500
-5.5991200
-5.5991200
-5.6006500
-5.5991200
-5.6006500
-5.6021700
-5.6006500
-5.6006500
-5.6006500
-5.6006500
-5.6006500
-5.5991200
-5.6052200
-5.6021700
-5.6006500
-5.6006500
-5.6006500
-5.5991200
-5.5991200
-5.6006500
-5.6037000
-5.5991200
-5.6037000
-5.6006500
-5.5991200
-5.6006500
-5.6037000
-5.6037000
-5.6021700
-5.6021700
-5.6021700
-5.6037000
-5.6021700
-5.6037000
-5.6021700
-5.6052200
-5.6037000
-5.6052200
-5.6021700
-5.6021700
-5.6052200
-5.6052200
-5.6021700
-5.6021700
-5.6006500
-5.5991200
-5.6021700
-5.6021700
-5.5976000
-5.5991200
-5.5991200
-5.5991200
-5.6037000
-5.6021700
-5.5991200
-5.5991200
-5.5976000
-5.6006500
-5.5991200
-5.6021700
-5.6037000
-5.5991200
-5.6021700
-5.6021700
-5.5991200
-5.5991200
-5.5991200
-5.5991200
-5.5991200
-5.6021700
-5.6037000
-5.6006500
-5.5976000
-5.6021700
-5.5991200
-5.6021700
-5.6006500
-5.6021700
-5.6006500
-5.6021700
-5.6021700
-5.6006500
-5.5991200
-5.6006500
-5.5960700
-5.5976000
-5.5991200
-5.6006500
-5.5960700
-5.5991200
-5.5991200
-5.5991200
-5.5991200
-5.5976000
-5.6006500
-5.5945400
-5.5960700
-5.5991200
-5.5976000
-5.5991200
-5.6006500
-5.5991200
-5.6021700
-5.5991200
-5.5991200
-5.5945400
-5.5976000
-5.5991200
-5.6006500
-5.6021700
-5.5991200
-5.5976000
-5.5991200
-5.5976000
-5.5976000
-5.5960700
-5.5960700
-5.5976000
-5.6006500
-5.5976000
-5.5960700
-5.5945400
-5.5930200
-5.5960700
-5.5930200
-5.5945400
-5.5945400
-5.5945400
-5.5914900
-5.5914900
-5.5899700
-5.5914900
-5.5914900
-5.5945400
-5.5899700
-5.5884400
-5.5899700
-5.5899700
-5.5899700
-5.5945400
-5.5976000
-5.5945400
-5.5976000
-5.5976000
-5.5945400
-5.5945400
-5.6006500
-5.6021700
-5.6006500
-5.6067500
-5.6037000
-5.6037000
-5.6067500
-5.6082800
-5.6082800
-5.6082800
-5.6098000
-5.6082800
-5.6098000
-5.6067500
-5.6082800
-5.6052200
-5.6037000
-5.6006500
-5.6021700
-5.5991200
-5.6021700
-5.6006500
-5.6021700
-5.6021700
-5.6037000
-5.6006500
-5.5976000
-5.6006500
-5.5976000
-5.6006500
-5.6021700
-5.5991200
-5.5991200
-5.5991200
-5.5976000
-5.6021700
-5.5991200
-5.5991200
-5.5945400
-5.5945400
-5.5960700
-5.5991200
-5.5945400
-5.5930200
-5.5945400
-5.5945400
-5.5976000
-5.5945400
-5.5960700
-5.5930200
-5.5945400
-5.5930200
-5.5991200
-5.5960700
-5.5960700
-5.5960700
-5.5945400
-5.5960700
-5.5930200
-5.5960700
-5.5930200
-5.5930200
-5.5976000
-5.5945400
-5.5945400
-5.5945400
-5.5960700
-5.5960700
-5.5976000
-5.5945400
-5.5991200
-5.5945400
-5.5976000
-5.5960700
-5.5991200
-5.5960700
-5.5945400
-5.5899700
-5.5914900
-5.5930200
-5.5930200
-5.5930200
-5.5914900
-5.5914900
-5.5930200
-5.5930200
-5.5945400
-5.5914900
-5.5899700
-5.5914900
-5.5945400
-5.5945400
-5.5914900
-5.5960700
-5.5945400
-5.5914900
-5.5945400
-5.5914900
-5.5930200
-5.5930200
-5.5976000
-5.5945400
-5.5930200
-5.5930200
-5.5945400
-5.5930200
-5.5930200
-5.5914900
-5.5960700
-5.5976000
-5.5976000
-5.5960700
-5.5960700
-5.5960700
-5.5991200
-5.5945400
-5.5960700
-5.5945400
-5.5976000
-5.5930200
-5.5945400
-5.5914900
-5.5945400
-5.5884400
-5.5914900
-5.5869100
-5.5884400
-5.5914900
-5.5869100
-5.5930200
-5.5899700
-5.5930200
-5.5884400
-5.5899700
-5.5853900
-5.5914900
-5.5869100
-5.5884400
-5.5869100
-5.5899700
-5.5899700
-5.5884400
-5.5899700
-5.5884400
-5.5914900
-5.5884400
-5.5884400
-5.5899700
-5.5884400
-5.5884400
-5.5899700
-5.5930200
-5.5930200
-5.5914900
-5.5914900
-5.5914900
-5.5914900
-5.5884400
-5.5899700
-5.5914900
-5.5884400
-5.5914900
-5.5899700
-5.5899700
-5.5914900
-5.5899700
-5.5899700
-5.5884400
-5.5914900
-5.5930200
-5.5899700
-5.5914900
-5.5899700
-5.5884400
-5.5899700
-5.5884400
-5.5884400
-5.5884400
-5.5884400
-5.5899700
-5.5869100
-5.5899700
-5.5899700
-5.5914900
-5.5899700
-5.5914900
-5.5930200
-5.5914900
-5.5899700
-5.5899700
-5.5930200
-5.5930200
-5.5899700
-5.5899700
-5.5914900
-5.5930200
-5.5945400
-5.5884400
-5.5899700
-5.5899700
-5.5914900
-5.5914900
-5.5899700
-5.5899700
-5.5884400
-5.5914900
-5.5853900
-5.5899700
-5.5884400
-5.5869100
-5.5899700
-5.5884400
-5.5884400
-5.5884400
-5.5899700
-5.5869100
-5.5884400
-5.5899700
-5.5899700
-5.5899700
-5.5884400
-5.5899700
-5.5899700
-5.5884400
-5.5930200
-5.5930200
-5.5914900
-5.5899700
-5.5914900
-5.5899700
-5.5884400
-5.5930200
-5.5884400
-5.5914900
-5.5869100
-5.5899700
-5.5884400
-5.5899700
-5.5853900
-5.5869100
-5.5914900
-5.5884400
-5.5884400
-5.5884400
-5.5884400
-5.5884400
-5.5899700
-5.5899700
-5.5899700
-5.5899700
-5.5869100
-5.5884400
-5.5853900
-5.5853900
-5.5853900
-5.5853900
-5.5869100
-5.5838600
-5.5823400
-5.5853900
-5.5838600
-5.5869100
-5.5869100
-5.5869100
-5.5884400
-5.5853900
-5.5853900
-5.5838600
-5.5838600
-5.5838600
-5.5869100
-5.5838600
-5.5899700
-5.5869100
-5.5869100
-5.5869100
-5.5823400
-5.5853900
-5.5838600
-5.5853900
-5.5823400
-5.5853900
-5.5823400
-5.5869100
-5.5853900
-5.5838600
-5.5853900
-5.5869100
-5.5838600
-5.5838600
-5.5838600
-5.5853900
-5.5853900
-5.5823400
-5.5838600
-5.5838600
-5.5838600
-5.5869100
-5.5869100
-5.5853900
-5.5884400
-5.5838600
-5.5853900
-5.5838600
-5.5838600
-5.5823400
-5.5823400
-5.5823400
-5.5823400
-5.5808100
-5.5823400
-5.5853900
-5.5853900
-5.5823400
-5.5823400
-5.5808100
-5.5823400
-5.5808100
-5.5823400
-5.5823400
-5.5853900
-5.5853900
-5.5808100
-5.5838600
-5.5838600
-5.5838600
-5.5823400
-5.5838600
-5.5808100
-5.5853900
-5.5777600
-5.5838600
-5.5823400
-5.5838600
-5.5853900
-5.5823400
-5.5808100
-5.5808100
-5.5808100
-5.5762300
-5.5838600
-5.5808100
-5.5838600
-5.5777600
-5.5823400
-5.5838600
-5.5808100
-5.5808100
-5.5777600
-5.5777600
-5.5762300
-5.5838600
-5.5823400
-5.5838600
-5.5838600
-5.5869100
-5.5808100
-5.5808100
-5.5777600
-5.5808100
-5.5838600
-5.5823400
-5.5762300
-5.5838600
-5.5808100
-5.5808100
-5.5762300
-5.5762300
-5.5808100
-5.5808100
-5.5808100
-5.5777600
-5.5853900
-5.5747100
-5.5838600
-5.5808100
-5.5762300
-5.5777600
-5.5777600
-5.5808100
-5.5808100
-5.5808100
-5.5823400
-5.5823400
-5.5808100
-5.5808100
-5.5808100
-5.5777600
-5.5777600
-5.5823400
-5.5823400
-5.5838600
-5.5762300
-5.5808100
-5.5808100
-5.5762300
-5.5762300
-5.5747100
-5.5777600
-5.5731800
-5.5808100
-5.5777600
-5.5777600
-5.5762300
-5.5716600
-5.5762300
-5.5747100
-5.5808100
-5.5777600
-5.5808100
-5.5823400
-5.5808100
-5.5777600
-5.5762300
-5.5777600
-5.5777600
-5.5762300
-5.5808100
-5.5808100
-5.5777600
-5.5762300
-5.5716600
-5.5808100
-5.5777600
-5.5777600
-5.5762300
-5.5747100
-5.5823400
-5.5808100
-5.5808100
-5.5808100
-5.5808100
-5.5808100
-5.5808100
-5.5808100
-5.5808100
-5.5823400
-5.5823400
-5.5777600
-5.5823400
-5.5838600
-5.5838600
-5.5838600
-5.5808100
-5.5823400
-5.5762300
-5.5808100
-5.5808100
-5.5808100
-5.5762300
-5.5823400
-5.5823400
-5.5823400
-5.5777600
-5.5777600
-5.5808100
-5.5777600
-5.5808100
-5.5808100
-5.5808100
-5.5808100
-5.5808100
-5.5823400
-5.5808100
-5.5823400
-5.5823400
-5.5777600
-5.5838600
-5.5808100
-5.5808100
-5.5808100
-5.5823400
-5.5823400
-5.5823400
-5.5777600
-5.5808100
-5.5808100
-5.5777600
-5.5808100
-5.5823400
-5.5823400
-5.5838600
-5.5777600
-5.5853900
-5.5808100
-5.5838600
-5.5777600
-5.5808100
-5.5823400
-5.5777600
-5.5762300
-5.5823400
-5.5747100
-5.5747100
-5.5762300
-5.5747100
-5.5747100
-5.5747100
-5.5808100
-5.5762300
-5.5762300
-5.5777600
-5.5808100
-5.5777600
-5.5777600
-5.5823400
-5.5808100
-5.5808100
-5.5777600
-5.5777600
-5.5762300
-5.5808100
-5.5777600
-5.5777600
-5.5777600
-5.5777600
-5.5731800
-5.5762300
-5.5823400
-5.5762300
-5.5762300
-5.5808100
-5.5808100
-5.5762300
-5.5823400
-5.5762300
-5.5762300
-5.5731800
-5.5762300
-5.5762300
-5.5777600
-5.5777600
-5.5747100
-5.5747100
-5.5747100
-5.5762300
-5.5747100
-5.5762300
-5.5731800
-5.5731800
-5.5777600
-5.5762300
-5.5747100
-5.5701300
-5.5747100
-5.5731800
-5.5731800
-5.5716600
-5.5747100
-5.5670800
-5.5716600
-5.5716600
-5.5731800
-5.5716600
-5.5701300
-5.5716600
-5.5686000
-5.5716600
-5.5701300
-5.5701300
-5.5686000
-5.5731800
-5.5747100
-5.5716600
-5.5701300
-5.5716600
-5.5686000
-5.5716600
-5.5731800
-5.5686000
-5.5762300
-5.5716600
-5.5762300
-5.5747100
-5.5762300
-5.5762300
-5.5731800
-5.5716600
-5.5731800
-5.5762300
-5.5762300
-5.5747100
-5.5747100
-5.5731800
-5.5747100
-5.5747100
-5.5747100
-5.5747100
-5.5731800
-5.5762300
-5.5762300
-5.5777600
-5.5731800
-5.5747100
-5.5731800
-5.5731800
-5.5762300
-5.5762300
-5.5762300
-5.5762300
-5.5808100
-5.5762300
-5.5869100
-5.5823400
-5.5777600
-5.5747100
-5.5777600
-5.5808100
-5.5731800
-5.5762300
-5.5747100
-5.5762300
-5.5777600
-5.5777600
-5.5777600
-5.5762300
-5.5716600
-5.5777600
-5.5777600
-5.5762300
-5.5777600
-5.5762300
-5.5762300
-5.5747100
-5.5747100
-5.5762300
-5.5762300
-5.5747100
-5.5777600
-5.5762300
-5.5823400
-5.5808100
-5.5777600
-5.5808100
-5.5762300
-5.5808100
-5.5777600
-5.5838600
-5.5747100
-5.5808100
-5.5762300
-5.5823400
-5.5777600
-5.5747100
-5.5762300
-5.5747100
-5.5762300
-5.5808100
-5.5747100
-5.5747100
-5.5747100
-5.5762300
-5.5823400
-5.5762300
-5.5747100
-5.5777600
-5.5762300
-5.5823400
-5.5777600
-5.5777600
-5.5777600
-5.5808100
-5.5777600
-5.5808100
-5.5762300
-5.5777600
-5.5716600
-5.5777600
-5.5747100
-5.5747100
-5.5777600
-5.5823400
-5.5747100
-5.5762300
-5.5808100
-5.5777600
-5.5808100
-5.5808100
-5.5808100
-5.5808100
-5.5823400
-5.5762300
-5.5731800
-5.5747100
-5.5762300
-5.5747100
-5.5716600
-5.5716600
-5.5716600
-5.5716600
-5.5686000
-5.5716600
-5.5686000
-5.5716600
-5.5716600
-5.5686000
-5.5716600
-5.5747100
-5.5747100
-5.5731800
-5.5762300
-5.5808100
-5.5823400
-5.5838600
-5.5838600
-5.5808100
-5.5869100
-5.5869100
-5.5899700
-5.5899700
-5.5884400
-5.5914900
-5.5899700
-5.5899700
-5.5914900
-5.5853900
-5.5823400
-5.5884400
-5.5869100
-5.5853900
-5.5853900
-5.5853900
-5.5823400
-5.5808100
-5.5853900
-5.5808100
-5.5762300
-5.5777600
-5.5747100
-5.5777600
-5.5808100
-5.5747100
-5.5747100
-5.5762300
-5.5747100
-5.5747100
-5.5731800
-5.5747100
-5.5731800
-5.5701300
-5.5731800
-5.5747100
-5.5747100
-5.5701300
-5.5701300
-5.5701300
-5.5731800
-5.5716600
-5.5747100
-5.5731800
-5.5716600
-5.5686000
-5.5686000
-5.5701300
-5.5670800
-5.5670800
-5.5686000
-5.5686000
-5.5716600
-5.5716600
-5.5716600
-5.5716600
-5.5731800
-5.5716600
-5.5686000
-5.5686000
-5.5655500
-5.5701300
-5.5670800
-5.5686000
-5.5686000
-5.5655500
-5.5686000
-5.5701300
-5.5670800
-5.5701300
-5.5686000
-5.5686000
-5.5701300
-5.5686000
-5.5670800
-5.5701300
-5.5670800
-5.5701300
-5.5701300
-5.5701300
-5.5670800
-5.5701300
-5.5670800
-5.5701300
-5.5686000
-5.5686000
-5.5686000
-5.5701300
-5.5670800
-5.5670800
-5.5670800
-5.5686000
-5.5701300
-5.5670800
-5.5716600
-5.5686000
-5.5686000
-5.5686000
-5.5686000
-5.5670800
-5.5670800
-5.5670800
-5.5655500
-5.5655500
-5.5625000
-5.5670800
-5.5686000
-5.5716600
-5.5670800
-5.5701300
-5.5670800
-5.5716600
-5.5701300
-5.5716600
-5.5716600
-5.5670800
-5.5686000
-5.5701300
-5.5716600
-5.5731800
-5.5716600
-5.5716600
-5.5731800
-5.5731800
-5.5716600
-5.5716600
-5.5716600
-5.5731800
-5.5701300
-5.5731800
-5.5701300
-5.5670800
-5.5686000
-5.5686000
-5.5686000
-5.5701300
-5.5655500
-5.5686000
-5.5640300
-5.5701300
-5.5686000
-5.5686000
-5.5686000
-5.5655500
-5.5716600
-5.5670800
-5.5686000
-5.5670800
-5.5670800
-5.5655500
-5.5655500
-5.5670800
-5.5655500
-5.5655500
-5.5670800
-5.5686000
-5.5655500
-5.5670800
-5.5640300
-5.5670800
-5.5625000
-5.5701300
-5.5655500
-5.5670800
-5.5686000
-5.5670800
-5.5655500
-5.5655500
-5.5670800
-5.5670800
-5.5655500
-5.5655500
-5.5655500
-5.5670800
-5.5670800
-5.5655500
-5.5655500
-5.5625000
-5.5640300
-5.5670800
-5.5670800
-5.5625000
-5.5670800
-5.5701300
-5.5686000
-5.5701300
-5.5655500
-5.5670800
-5.5655500
-5.5655500
-5.5640300
-5.5640300
-5.5686000
-5.5640300
-5.5655500
-5.5655500
-5.5625000
-5.5640300
-5.5640300
-5.5625000
-5.5640300
-5.5609700
-5.5594500
-5.5625000
-5.5640300
-5.5625000
-5.5640300
-5.5640300
-5.5640300
-5.5640300
-5.5594500
-5.5655500
-5.5640300
-5.5640300
-5.5655500
-5.5655500
-5.5640300
-5.5640300
-5.5686000
-5.5655500
-5.5655500
-5.5670800
-5.5686000
-5.5670800
-5.5701300
-5.5701300
-5.5655500
-5.5655500
-5.5655500
-5.5655500
-5.5640300
-5.5655500
-5.5655500
-5.5670800
-5.5640300
-5.5640300
-5.5655500
-5.5640300
-5.5625000
-5.5670800
-5.5640300
-5.5670800
-5.5655500
-5.5625000
-5.5625000
-5.5625000
-5.5609700
-5.5640300
-5.5625000
-5.5594500
-5.5609700
-5.5609700
-5.5625000
-5.5594500
-5.5594500
-5.5609700
-5.5609700
-5.5594500
-5.5625000
-5.5609700
-5.5594500
-5.5609700
-5.5609700
-5.5625000
-5.5609700
-5.5594500
-5.5594500
-5.5609700
-5.5609700
-5.5594500
-5.5640300
-5.5609700
-5.5625000
-5.5625000
-5.5609700
-5.5640300
-5.5609700
-5.5625000
-5.5625000
-5.5609700
-5.5609700
-5.5655500
-5.5640300
-5.5655500
-5.5640300
-5.5625000
-5.5625000
-5.5609700
-5.5594500
-5.5609700
-5.5609700
-5.5640300
-5.5640300
-5.5640300
-5.5640300
-5.5609700
-5.5609700
-5.5609700
-5.5625000
-5.5609700
-5.5594500
-5.5655500
-5.5579200
-5.5625000
-5.5609700
-5.5625000
-5.5609700
-5.5579200
-5.5594500
-5.5625000
-5.5594500
-5.5579200
-5.5579200
-5.5625000
-5.5594500
-5.5609700
-5.5609700
-5.5594500
-5.5625000
-5.5609700
-5.5594500
-5.5594500
-5.5594500
-5.5594500
-5.5625000
-5.5625000
-5.5625000
-5.5625000
-5.5609700
-5.5594500
-5.5579200
-5.5579200
-5.5594500
-5.5594500
-5.5579200
-5.5594500
-5.5564000
-5.5564000
-5.5548700
-5.5548700
-5.5564000
-5.5579200
-5.5594500
-5.5579200
-5.5609700
-5.5579200
-5.5609700
-5.5609700
-5.5609700
-5.5594500
-5.5594500
-5.5625000
-5.5640300
-5.5625000
-5.5609700
-5.5640300
-5.5609700
-5.5609700
-5.5594500
-5.5579200
-5.5594500
-5.5579200
-5.5594500
-5.5594500
-5.5625000
-5.5594500
-5.5625000
-5.5594500
-5.5564000
-5.5579200
-5.5564000
-5.5564000
-5.5579200
-5.5564000
-5.5564000
-5.5579200
-5.5579200
-5.5594500
-5.5594500
-5.5579200
-5.5594500
-5.5564000
-5.5579200
-5.5594500
-5.5594500
-5.5625000
-5.5609700
-5.5548700
-5.5564000
-5.5548700
-5.5609700
-5.5533400
-5.5579200
-5.5579200
-5.5579200
-5.5579200
-5.5548700
-5.5564000
-5.5579200
-5.5533400
-5.5548700
-5.5609700
-5.5564000
-5.5564000
-5.5579200
-5.5579200
-5.5594500
-5.5579200
-5.5564000
-5.5579200
-5.5548700
-5.5579200
-5.5548700
-5.5548700
-5.5564000
-5.5502900
-5.5579200
-5.5548700
-5.5579200
-5.5564000
-5.5564000
-5.5564000
-5.5579200
-5.5579200
-5.5564000
-5.5579200
-5.5594500
-5.5594500
-5.5564000
-5.5579200
-5.5564000
-5.5579200
-5.5579200
-5.5609700
-5.5579200
-5.5564000
-5.5564000
-5.5579200
-5.5564000
-5.5579200
-5.5594500
-5.5564000
-5.5579200
-5.5548700
-5.5548700
-5.5564000
-5.5564000
-5.5548700
-5.5548700
-5.5564000
-5.5564000
-5.5594500
-5.5564000
-5.5625000
-5.5579200
-5.5594500
-5.5579200
-5.5579200
-5.5579200
-5.5564000
-5.5564000
-5.5548700
-5.5548700
-5.5579200
-5.5564000
-5.5564000
-5.5609700
-5.5548700
-5.5548700
-5.5548700
-5.5564000
-5.5548700
-5.5548700
-5.5564000
-5.5533400
-5.5548700
-5.5548700
-5.5579200
-5.5548700
-5.5548700
-5.5533400
-5.5548700
-5.5533400
-5.5564000
-5.5548700
-5.5518200
-5.5502900
-5.5518200
-5.5472400
-5.5518200
-5.5533400
-5.5457200
-5.5518200
-5.5533400
-5.5548700
-5.5518200
-5.5548700
-5.5533400
-5.5518200
-5.5564000
-5.5518200
-5.5518200
-5.5518200
-5.5533400
-5.5502900
-5.5518200
-5.5533400
-5.5502900
-5.5533400
-5.5564000
-5.5502900
-5.5502900
-5.5502900
-5.5548700
-5.5518200
-5.5502900
-5.5548700
-5.5472400
-5.5472400
-5.5472400
-5.5518200
-5.5518200
-5.5502900
-5.5472400
-5.5518200
-5.5502900
-5.5502900
-5.5472400
-5.5502900
-5.5533400
-5.5502900
-5.5518200
-5.5518200
-5.5518200
-5.5502900
-5.5533400
-5.5502900
-5.5502900
-5.5472400
-5.5457200
-5.5472400
-5.5472400
-5.5502900
-5.5518200
-5.5518200
-5.5472400
-5.5502900
-5.5502900
-5.5533400
-5.5518200
-5.5533400
-5.5533400
-5.5518200
-5.5533400
-5.5533400
-5.5518200
-5.5502900
-5.5457200
-5.5472400
-5.5472400
-5.5502900
-5.5518200
-5.5502900
-5.5502900
-5.5533400
-5.5502900
-5.5548700
-5.5518200
-5.5548700
-5.5533400
-5.5548700
-5.5548700
-5.5579200
-5.5579200
-5.5579200
-5.5594500
-5.5564000
-5.5548700
-5.5594500
-5.5564000
-5.5548700
-5.5548700
-5.5548700
-5.5579200
-5.5548700
-5.5548700
-5.5533400
-5.5518200
-5.5518200
-5.5548700
-5.5548700
-5.5533400
-5.5548700
-5.5564000
-5.5579200
-5.5579200
-5.5609700
-5.5564000
-5.5564000
-5.5609700
-5.5579200
-5.5548700
-5.5564000
-5.5564000
-5.5548700
-5.5564000
-5.5548700
-5.5579200
-5.5564000
-5.5548700
-5.5594500
-5.5579200
-5.5564000
-5.5564000
-5.5548700
-5.5533400
-5.5548700
-5.5548700
-5.5533400
-5.5533400
-5.5548700
-5.5564000
-5.5564000
-5.5533400
-5.5548700
-5.5518200
-5.5564000
-5.5518200
-5.5548700
-5.5564000
-5.5533400
-5.5502900
-5.5533400
-5.5548700
-5.5548700
-5.5533400
-5.5502900
-5.5518200
-5.5518200
-5.5533400
-5.5564000
-5.5533400
-5.5533400
-5.5502900
-5.5533400
-5.5533400
-5.5564000
-5.5518200
-5.5548700
-5.5548700
-5.5548700
-5.5533400
-5.5579200
-5.5502900
-5.5518200
-5.5564000
-5.5518200
-5.5548700
-5.5472400
-5.5518200
-5.5533400
-5.5518200
-5.5518200
-5.5518200
-5.5518200
-5.5518200
-5.5472400
-5.5518200
-5.5518200
-5.5472400
-5.5518200
-5.5472400
-5.5502900
-5.5502900
-5.5502900
-5.5457200
-5.5472400
-5.5441900
-5.5472400
-5.5472400
-5.5502900
-5.5548700
-5.5502900
-5.5548700
-5.5518200
-5.5548700
-5.5564000
-5.5564000
-5.5564000
-5.5609700
-5.5640300
-5.5625000
-5.5625000
-5.5609700
-5.5670800
-5.5640300
-5.5640300
-5.5655500
-5.5655500
-5.5609700
-5.5625000
-5.5640300
-5.5625000
-5.5579200
-5.5548700
-5.5564000
-5.5548700
-5.5579200
-5.5564000
-5.5548700
-5.5579200
-5.5579200
-5.5579200
-5.5579200
-5.5564000
-5.5564000
-5.5548700
-5.5533400
-5.5518200
-5.5518200
-5.5502900
-5.5502900
-5.5502900
-5.5518200
-5.5518200
-5.5502900
-5.5518200
-5.5426600
-5.5518200
-5.5472400
-5.5457200
-5.5472400
-5.5457200
-5.5502900
-5.5518200
-5.5457200
-5.5441900
-5.5457200
-5.5457200
-5.5441900
-5.5457200
-5.5502900
-5.5441900
-5.5441900
-5.5502900
-5.5441900
-5.5457200
-5.5441900
-5.5441900
-5.5457200
-5.5441900
-5.5518200
-5.5533400
-5.5457200
-5.5441900
-5.5502900
-5.5472400
-5.5518200
-5.5502900
-5.5502900
-5.5457200
-5.5472400
-5.5457200
-5.5472400
-5.5472400
-5.5441900
-5.5441900
-5.5457200
-5.5441900
-5.5441900
-5.5441900
-5.5441900
-5.5457200
-5.5441900
-5.5457200
-5.5472400
-5.5472400
-5.5457200
-5.5502900
-5.5502900
-5.5457200
-5.5457200
-5.5472400
-5.5518200
-5.5457200
-5.5472400
-5.5502900
-5.5457200
-5.5457200
-5.5502900
-5.5502900
-5.5502900
-5.5457200
-5.5502900
-5.5472400
-5.5457200
-5.5502900
-5.5472400
-5.5472400
-5.5472400
-5.5502900
-5.5518200
-5.5533400
-5.5472400
-5.5502900
-5.5472400
-5.5502900
-5.5518200
-5.5518200
-5.5502900
-5.5502900
-5.5502900
-5.5502900
-5.5533400
-5.5502900
-5.5472400
-5.5502900
-5.5518200
-5.5518200
-5.5472400
-5.5518200
-5.5548700
-5.5548700
-5.5533400
-5.5548700
-5.5533400
-5.5533400
-5.5441900
-5.5518200
-5.5502900
-5.5502900
-5.5518200
-5.5502900
-5.5502900
-5.5518200
-5.5502900
-5.5518200
-5.5502900
-5.5518200
-5.5502900
-5.5502900
-5.5518200
-5.5533400
-5.5518200
-5.5518200
-5.5457200
-5.5518200
-5.5502900
-5.5518200
-5.5472400
-5.5472400
-5.5472400
-5.5548700
-5.5457200
-5.5472400
-5.5472400
-5.5472400
-5.5472400
-5.5457200
-5.5472400
-5.5457200
-5.5502900
-5.5518200
-5.5502900
-5.5441900
-5.5441900
-5.5426600
-5.5472400
-5.5502900
-5.5472400
-5.5502900
-5.5457200
-5.5472400
-5.5472400
-5.5472400
-5.5518200
-5.5472400
-5.5457200
-5.5518200
-5.5457200
-5.5472400
-5.5472400
-5.5502900
-5.5472400
-5.5472400
-5.5472400
-5.5472400
-5.5472400
-5.5457200
-5.5441900
-5.5457200
-5.5472400
-5.5472400
-5.5457200
-5.5502900
-5.5472400
-5.5472400
-5.5441900
-5.5457200
-5.5457200
-5.5472400
-5.5472400
-5.5518200
-5.5441900
-5.5457200
-5.5502900
-5.5472400
-5.5472400
-5.5502900
-5.5457200
-5.5457200
-5.5518200
-5.5441900
-5.5502900
-5.5457200
-5.5472400
-5.5457200
-5.5472400
-5.5472400
-5.5441900
-5.5441900
-5.5457200
-5.5457200
-5.5426600
-5.5441900
-5.5457200
-5.5441900
-5.5411400
-5.5472400
-5.5457200
-5.5457200
-5.5426600
-5.5441900
-5.5411400
-5.5426600
-5.5411400
-5.5426600
-5.5426600
-5.5411400
-5.5457200
-5.5441900
-5.5441900
-5.5441900
-5.5426600
-5.5457200
-5.5457200
-5.5457200
-5.5426600
-5.5472400
-5.5411400
-5.5441900
-5.5441900
-5.5472400
-5.5411400
-5.5441900
-5.5426600
-5.5426600
-5.5426600
-5.5426600
-5.5441900
-5.5441900
-5.5441900
-5.5426600
-5.5441900
-5.5396100
-5.5411400
-5.5411400
-5.5411400
-5.5426600
-5.5426600
-5.5396100
-5.5396100
-5.5441900
-5.5411400
-5.5426600
-5.5426600
-5.5396100
-5.5411400
-5.5426600
-5.5426600
-5.5441900
-5.5457200
-5.5426600
-5.5396100
-5.5365600
-5.5380900
-5.5380900
-5.5380900
-5.5365600
-5.5396100
-5.5396100
-5.5426600
-5.5396100
-5.5380900
-5.5365600
-5.5396100
-5.5380900
-5.5396100
-5.5396100
-5.5396100
-5.5411400
-5.5441900
-5.5472400
-5.5411400
-5.5411400
-5.5426600
-5.5426600
-5.5426600
-5.5457200
-5.5411400
-5.5426600
-5.5426600
-5.5426600
-5.5426600
-5.5411400
-5.5426600
-5.5396100
-5.5411400
-5.5441900
-5.5426600
-5.5426600
-5.5426600
-5.5457200
-5.5411400
-5.5411400
-5.5441900
-5.5411400
-5.5380900
-5.5396100
-5.5396100
-5.5441900
-5.5426600
-5.5396100
-5.5411400
-5.5411400
-5.5426600
-5.5411400
-5.5441900
-5.5396100
-5.5426600
-5.5396100
-5.5441900
-5.5441900
-5.5426600
-5.5457200
-5.5426600
-5.5441900
-5.5411400
-5.5441900
-5.5411400
-5.5441900
-5.5441900
-5.5441900
-5.5441900
-5.5411400
-5.5411400
-5.5411400
-5.5426600
-5.5441900
-5.5426600
-5.5411400
-5.5411400
-5.5441900
-5.5411400
-5.5426600
-5.5426600
-5.5396100
-5.5426600
-5.5441900
-5.5441900
-5.5411400
-5.5426600
-5.5441900
-5.5411400
-5.5426600
-5.5365600
-5.5365600
-5.5365600
-5.5426600
-5.5411400
-5.5411400
-5.5396100
-5.5396100
-5.5380900
-5.5380900
-5.5411400
-5.5411400
-5.5380900
-5.5426600
-5.5411400
-5.5396100
-5.5411400
-5.5380900
-5.5380900
-5.5365600
-5.5396100
-5.5411400
-5.5365600
-5.5380900
-5.5365600
-5.5365600
-5.5365600
-5.5350300
-5.5350300
-5.5335100
-5.5350300
-5.5350300
-5.5350300
-5.5380900
-5.5380900
-5.5396100
-5.5380900
-5.5380900
-5.5380900
-5.5411400
-5.5411400
-5.5350300
-5.5380900
-5.5396100
-5.5380900
-5.5380900
-5.5411400
-5.5380900
-5.5396100
-5.5380900
-5.5350300
-5.5411400
-5.5365600
-5.5380900
-5.5365600
-5.5396100
-5.5411400
-5.5380900
-5.5380900
-5.5396100
-5.5380900
-5.5396100
-5.5380900
-5.5380900
-5.5380900
-5.5396100
-5.5396100
-5.5411400
-5.5380900
-5.5396100
-5.5396100
-5.5380900
-5.5365600
-5.5365600
-5.5335100
-5.5365600
-5.5396100
-5.5365600
-5.5335100
-5.5350300
-5.5350300
-5.5365600
-5.5335100
-5.5380900
-5.5335100
-5.5365600
-5.5350300
-5.5365600
-5.5365600
-5.5365600
-5.5350300
-5.5350300
-5.5350300
-5.5365600
-5.5350300
-5.5350300
-5.5319800
-5.5380900
-5.5365600
-5.5380900
-5.5335100
-5.5365600
-5.5380900
-5.5380900
-5.5380900
-5.5365600
-5.5396100
-5.5380900
-5.5396100
-5.5396100
-5.5365600
-5.5350300
-5.5380900
-5.5335100
-5.5365600
-5.5380900
-5.5411400
-5.5411400
-5.5396100
-5.5426600
-5.5365600
-5.5365600
-5.5350300
-5.5350300
-5.5380900
-5.5396100
-5.5380900
-5.5350300
-5.5335100
-5.5396100
-5.5365600
-5.5365600
-5.5396100
-5.5380900
-5.5396100
-5.5380900
-5.5365600
-5.5396100
-5.5380900
-5.5411400
-5.5365600
-5.5380900
-5.5365600
-5.5396100
-5.5365600
-5.5365600
-5.5380900
-5.5380900
-5.5396100
-5.5380900
-5.5365600
-5.5365600
-5.5396100
-5.5411400
-5.5411400
-5.5396100
-5.5411400
-5.5441900
-5.5411400
-5.5411400
-5.5396100
-5.5426600
-5.5396100
-5.5426600
-5.5396100
-5.5426600
-5.5441900
-5.5396100
-5.5380900
-5.5396100
-5.5380900
-5.5380900
-5.5350300
-5.5396100
-5.5396100
-5.5365600
-5.5380900
-5.5380900
-5.5380900
-5.5350300
-5.5365600
-5.5365600
-5.5380900
-5.5380900
-5.5365600
-5.5380900
-5.5380900
-5.5380900
-5.5365600
-5.5380900
-5.5365600
-5.5319800
-5.5350300
-5.5365600
-5.5335100
-5.5335100
-5.5350300
-5.5319800
-5.5350300
-5.5335100
-5.5350300
-5.5350300
-5.5335100
-5.5365600
-5.5380900
-5.5350300
-5.5365600
-5.5365600
-5.5350300
-5.5319800
-5.5319800
-5.5350300
-5.5319800
-5.5319800
-5.5350300
-5.5335100
-5.5380900
-5.5350300
-5.5335100
-5.5335100
-5.5350300
-5.5335100
-5.5365600
-5.5365600
-5.5304600
-5.5380900
-5.5365600
-5.5335100
-5.5350300
-5.5350300
-5.5380900
-5.5335100
-5.5335100
-5.5350300
-5.5350300
-5.5335100
-5.5365600
-5.5319800
-5.5319800
-5.5335100
-5.5304600
-5.5304600
-5.5319800
-5.5335100
-5.5289300
-5.5319800
-5.5335100
-5.5289300
-5.5289300
-5.5304600
-5.5274000
-5.5274000
-5.5289300
-5.5289300
-5.5274000
-5.5274000
-5.5289300
-5.5274000
-5.5304600
-5.5274000
-5.5274000
-5.5258800
-5.5289300
-5.5274000
-5.5304600
-5.5274000
-5.5350300
-5.5319800
-5.5304600
-5.5380900
-5.5319800
-5.5350300
-5.5365600
-5.5426600
-5.5411400
-5.5457200
-5.5426600
-5.5457200
-5.5472400
-5.5472400
-5.5426600
-5.5457200
-5.5472400
-5.5426600
-5.5411400
-5.5396100
-5.5411400
-5.5365600
-5.5396100
-5.5380900
-5.5380900
-5.5350300
-5.5335100
-5.5365600
-5.5365600
-5.5365600
-5.5350300
-5.5396100
-5.5396100
-5.5380900
-5.5380900
-5.5365600
-5.5365600
-5.5365600
-5.5380900
-5.5350300
-5.5396100
-5.5380900
-5.5396100
-5.5335100
-5.5365600
-5.5365600
-5.5365600
-5.5335100
-5.5335100
-5.5319800
-5.5319800
-5.5289300
-5.5335100
-5.5319800
-5.5335100
-5.5289300
-5.5319800
-5.5289300
-5.5304600
-5.5319800
-5.5289300
-5.5319800
-5.5335100
-5.5335100
-5.5304600
-5.5335100
-5.5304600
-5.5289300
-5.5319800
-5.5319800
-5.5350300
-5.5335100
-5.5319800
-5.5274000
-5.5319800
-5.5289300
-5.5274000
-5.5335100
-5.5304600
-5.5350300
-5.5350300
-5.5365600
-5.5350300
-5.5350300
-5.5335100
-5.5335100
-5.5304600
-5.5319800
-5.5335100
-5.5335100
-5.5350300
-5.5319800
-5.5350300
-5.5319800
-5.5319800
-5.5319800
-5.5319800
-5.5304600
-5.5350300
-5.5289300
-5.5289300
-5.5289300
-5.5289300
-5.5289300
-5.5289300
-5.5274000
-5.5274000
-5.5289300
-5.5274000
-5.5289300
-5.5274000
-5.5274000
-5.5274000
-5.5289300
-5.5289300
-5.5274000
-5.5289300
-5.5274000
-5.5319800
-5.5319800
-5.5304600
-5.5319800
-5.5289300
-5.5304600
-5.5304600
-5.5274000
-5.5319800
-5.5350300
-5.5319800
-5.5319800
-5.5274000
-5.5319800
-5.5289300
-5.5289300
-5.5289300
-5.5289300
-5.5304600
-5.5289300
-5.5319800
-5.5304600
-5.5319800
-5.5319800
-5.5304600
-5.5304600
-5.5304600
-5.5274000
-5.5274000
-5.5274000
-5.5304600
-5.5289300
-5.5289300
-5.5289300
-5.5319800
-5.5304600
-5.5319800
-5.5304600
-5.5304600
-5.5304600
-5.5304600
-5.5350300
-5.5274000
-5.5304600
-5.5289300
-5.5289300
-5.5274000
-5.5274000
-5.5289300
-5.5228300
-5.5274000
-5.5274000
-5.5319800
-5.5289300
-5.5289300
-5.5243500
-5.5274000
-5.5289300
-5.5289300
-5.5274000
-5.5319800
-5.5304600
-5.5258800
-5.5274000
-5.5289300
-5.5274000
-5.5243500
-5.5289300
-5.5274000
-5.5274000
-5.5289300
-5.5274000
-5.5304600
-5.5258800
-5.5319800
-5.5289300
-5.5304600
-5.5289300
-5.5258800
-5.5274000
-5.5304600
-5.5258800
-5.5258800
-5.5289300
-5.5258800
-5.5274000
-5.5274000
-5.5274000
-5.5274000
-5.5319800
-5.5258800
-5.5304600
-5.5289300
-5.5274000
-5.5274000
-5.5289300
-5.5274000
-5.5274000
-5.5289300
-5.5274000
-5.5258800
-5.5258800
-5.5289300
-5.5289300
-5.5289300
-5.5274000
-5.5258800
-5.5258800
-5.5243500
-5.5258800
-5.5243500
-5.5243500
-5.5258800
-5.5274000
-5.5228300
-5.5274000
-5.5258800
-5.5289300
-5.5258800
-5.5319800
-5.5258800
-5.5319800
-5.5289300
-5.5304600
-5.5319800
-5.5289300
-5.5319800
-5.5289300
-5.5289300
-5.5289300
-5.5304600
-5.5274000
-5.5274000
-5.5319800
-5.5304600
-5.5289300
-5.5304600
-5.5319800
-5.5304600
-5.5319800
-5.5319800
-5.5319800
-5.5304600
-5.5335100
-5.5335100
-5.5304600
-5.5319800
-5.5319800
-5.5304600
-5.5319800
-5.5304600
-5.5289300
-5.5274000
-5.5274000
-5.5304600
-5.5274000
-5.5289300
-5.5258800
-5.5228300
-5.5243500
-5.5243500
-5.5228300
-5.5228300
-5.5228300
-5.5213000
-5.5258800
-5.5213000
-5.5213000
-5.5213000
-5.5197800
-5.5228300
-5.5258800
-5.5243500
-5.5243500
-5.5243500
-5.5213000
-5.5243500
-5.5213000
-5.5228300
-5.5228300
-5.5258800
-5.5228300
-5.5243500
-5.5197800
-5.5213000
-5.5197800
-5.5228300
-5.5228300
-5.5197800
-5.5167200
-5.5167200
-5.5197800
-5.5167200
-5.5167200
-5.5167200
-5.5136700
-5.5152000
-5.5213000
-5.5197800
-5.5213000
-5.5213000
-5.5197800
-5.5213000
-5.5243500
-5.5228300
-5.5228300
-5.5228300
-5.5243500
-5.5258800
-5.5243500
-5.5258800
-5.5213000
-5.5228300
-5.5243500
-5.5228300
-5.5243500
-5.5197800
-5.5197800
-5.5228300
-5.5213000
-5.5228300
-5.5243500
-5.5243500
-5.5213000
-5.5213000
-5.5213000
-5.5228300
-5.5213000
-5.5197800
-5.5197800
-5.5213000
-5.5243500
-5.5213000
-5.5213000
-5.5197800
-5.5213000
-5.5197800
-5.5228300
-5.5167200
-5.5197800
-5.5197800
-5.5213000
-5.5213000
-5.5167200
-5.5167200
-5.5167200
-5.5197800
-5.5213000
-5.5197800
-5.5167200
-5.5213000
-5.5167200
-5.5167200
-5.5197800
-5.5258800
-5.5228300
-5.5213000
-5.5243500
-5.5258800
-5.5228300
-5.5243500
-5.5213000
-5.5197800
-5.5213000
-5.5213000
-5.5213000
-5.5213000
-5.5228300
-5.5197800
-5.5243500
-5.5228300
-5.5197800
-5.5228300
-5.5152000
-5.5213000
-5.5167200
-5.5167200
-5.5167200
-5.5167200
-5.5167200
-5.5228300
-5.5213000
-5.5197800
-5.5213000
-5.5152000
-5.5152000
-5.5213000
-5.5197800
-5.5197800
-5.5213000
-5.5136700
-5.5167200
-5.5152000
-5.5136700
-5.5106200
-5.5136700
-5.5136700
-5.5136700
-5.5136700
-5.5136700
-5.5152000
-5.5136700
-5.5121500
-5.5106200
-5.5136700
-5.5136700
-5.5152000
-5.5136700
-5.5152000
-5.5197800
-5.5197800
-5.5136700
-5.5152000
-5.5197800
-5.5213000
-5.5213000
-5.5228300
-5.5213000
-5.5136700
-5.5197800
-5.5197800
-5.5213000
-5.5167200
-5.5152000
-5.5136700
-5.5152000
-5.5197800
-5.5152000
-5.5136700
-5.5136700
-5.5136700
-5.5152000
-5.5136700
-5.5167200
-5.5121500
-5.5136700
-5.5167200
-5.5197800
-5.5136700
-5.5152000
-5.5136700
-5.5136700
-5.5167200
-5.5167200
-5.5167200
-5.5136700
-5.5121500
-5.5121500
-5.5152000
-5.5167200
-5.5167200
-5.5152000
-5.5136700
-5.5136700
-5.5136700
-5.5136700
-5.5152000
-5.5152000
-5.5136700
-5.5136700
-5.5197800
-5.5121500
-5.5121500
-5.5136700
-5.5152000
-5.5167200
-5.5152000
-5.5152000
-5.5167200
-5.5136700
-5.5167200
-5.5167200
-5.5152000
-5.5167200
-5.5090900
-5.5152000
-5.5152000
-5.5152000
-5.5152000
-5.5136700
-5.5152000
-5.5121500
-5.5167200
-5.5152000
-5.5121500
-5.5090900
-5.5136700
-5.5121500
-5.5136700
-5.5152000
-5.5121500
-5.5106200
-5.5136700
-5.5136700
-5.5106200
-5.5121500
-5.5121500
-5.5136700
-5.5152000
-5.5167200
-5.5152000
-5.5197800
-5.5197800
-5.5197800
-5.5197800
-5.5213000
-5.5167200
-5.5197800
-5.5152000
-5.5167200
-5.5243500
-5.5197800
-5.5197800
-5.5136700
-5.5152000
-5.5152000
-5.5167200
-5.5213000
-5.5167200
-5.5136700
-5.5136700
-5.5197800
-5.5136700
-5.5136700
-5.5106200
-5.5136700
-5.5106200
-5.5075700
-5.5136700
-5.5106200
-5.5106200
-5.5121500
-5.5136700
-5.5075700
-5.5106200
-5.5060400
-5.5136700
-5.5121500
-5.5075700
-5.5090900
-5.5075700
-5.5090900
-5.5090900
-5.5075700
-5.5075700
-5.5075700
-5.5045200
-5.5045200
-5.5075700
-5.5075700
-5.5075700
-5.5090900
-5.5121500
-5.5090900
-5.5090900
-5.5090900
-5.5106200
-5.5045200
-5.5106200
-5.5075700
-5.5106200
-5.5106200
-5.5090900
-5.5075700
-5.5075700
-5.5090900
-5.5106200
-5.5060400
-5.5106200
-5.5121500
-5.5106200
-5.5136700
-5.5106200
-5.5106200
-5.5090900
-5.5060400
-5.5106200
-5.5090900
-5.5106200
-5.5060400
-5.5090900
-5.5106200
-5.5075700
-5.5106200
-5.5090900
-5.5060400
-5.5136700
-5.5106200
-5.5136700
-5.5167200
-5.5136700
-5.5136700
-5.5090900
-5.5106200
-5.5075700
-5.5090900
-5.5075700
-5.5090900
-5.5060400
-5.5090900
-5.5060400
-5.5090900
-5.5090900
-5.5090900
-5.5060400
-5.5075700
-5.5060400
-5.5075700
-5.5060400
-5.5060400
-5.5090900
-5.5075700
-5.5075700
-5.5136700
-5.5090900
-5.5090900
-5.5090900
-5.5075700
-5.5106200
-5.5106200
-5.5075700
-5.5121500
-5.5075700
-5.5075700
-5.5090900
-5.5090900
-5.5106200
-5.5075700
-5.5075700
-5.5075700
-5.5075700
-5.5060400
-5.5075700
-5.5106200
-5.5060400
-5.5045200
-5.5090900
-5.5060400
-5.5075700
-5.5075700
-5.5075700
-5.5075700
-5.5090900
-5.5090900
-5.5075700
-5.5060400
-5.5045200
-5.5060400
-5.5060400
-5.5090900
-5.5060400
-5.5075700
-5.5045200
-5.5060400
-5.5075700
-5.5045200
-5.5045200
-5.5014600
-5.5060400
-5.5075700
-5.5106200
-5.5075700
-5.5075700
-5.5060400
-5.5090900
-5.5075700
-5.5106200
-5.5136700
-5.5121500
-5.5167200
-5.5136700
-5.5197800
-5.5167200
-5.5197800
-5.5197800
-5.5197800
-5.5167200
-5.5167200
-5.5167200
-5.5167200
-5.5213000
-5.5152000
-5.5213000
-5.5136700
-5.5152000
-5.5106200
-5.5106200
-5.5106200
-5.5152000
-5.5167200
-5.5136700
-5.5136700
-5.5152000
-5.5152000
-5.5121500
-5.5121500
-5.5106200
-5.5136700
-5.5136700
-5.5106200
-5.5090900
-5.5090900
-5.5075700
-5.5090900
-5.5075700
-5.5060400
-5.5090900
-5.5045200
-5.5060400
-5.5075700
-5.5075700
-5.5045200
-5.5045200
-5.5075700
-5.5014600
-5.5029900
-5.5029900
-5.5029900
-5.5029900
-5.5014600
-5.5029900
-5.5045200
-5.4999400
-5.4999400
-5.5014600
-5.5029900
-5.5060400
-5.5045200
-5.5029900
-5.5029900
-5.5029900
-5.5060400
-5.5045200
-5.5060400
-5.4999400
-5.5029900
-5.5060400
-5.5045200
-5.5045200
-5.5060400
-5.5045200
-5.5014600
-5.4999400
-5.5045200
-5.5029900
-5.4999400
-5.4999400
-5.5029900
-5.5014600
-5.5014600
-5.5029900
-5.4999400
-5.5045200
-5.5029900
-5.5075700
-5.5045200
-5.5014600
-5.5029900
-5.5045200
-5.5045200
-5.5045200
-5.5014600
-5.5014600
-5.5014600
-5.5029900
-5.5060400
-5.5060400
-5.5045200
-5.5045200
-5.5045200
-5.5014600
-5.5045200
-5.5029900
-5.5029900
-5.5014600
-5.5014600
-5.5090900
-5.5029900
-5.5029900
-5.5060400
-5.5090900
-5.5060400
-5.5045200
-5.5029900
-5.5029900
-5.4999400
-5.5045200
-5.5014600
-5.5045200
-5.5045200
-5.5029900
-5.5045200
-5.5029900
-5.5029900
-5.5029900
-5.5045200
-5.5029900
-5.5045200
-5.5045200
-5.5075700
-5.5045200
-5.5029900
-5.5045200
-5.5045200
-5.5045200
-5.5029900
-5.5075700
-5.5014600
-5.5045200
-5.5029900
-5.5029900
-5.5029900
-5.5029900
-5.5029900
-5.5029900
-5.5029900
-5.5029900
-5.5045200
-5.5014600
-5.5045200
-5.5045200
-5.5060400
-5.5029900
-5.5045200
-5.5029900
-5.5014600
-5.5014600
-5.5029900
-5.4999400
-5.5060400
-5.5045200
-5.5029900
-5.5029900
-5.5014600
-5.5045200
-5.5014600
-5.4984100
-5.4999400
-5.5029900
-5.5029900
-5.4999400
-5.5014600
-5.5014600
-5.5029900
-5.5014600
-5.5045200
-5.5014600
-5.5014600
-5.5014600
-5.5029900
-5.5045200
-5.5014600
-5.4984100
-5.5014600
-5.5045200
-5.5014600
-5.5029900
-5.5014600
-5.5060400
-5.5045200
-5.5045200
-5.5045200
-5.5045200
-5.5029900
-5.5045200
-5.5045200
-5.5014600
-5.5014600
-5.5014600
-5.5045200
-5.5014600
-5.5029900
-5.5029900
-5.5014600
-5.4999400
-5.5029900
-5.5014600
-5.5060400
-5.4999400
-5.4999400
-5.5029900
-5.4999400
-5.5029900
-5.4999400
-5.5029900
-5.4999400
-5.5060400
-5.5029900
-5.5029900
-5.5029900
-5.5014600
-5.5045200
-5.5014600
-5.5014600
-5.4999400
-5.4999400
-5.5014600
-5.4968900
-5.4999400
-5.5045200
-5.5014600
-5.5029900
-5.5029900
-5.4984100
-5.4999400
-5.4999400
-5.5029900
-5.4984100
-5.5029900
-5.5014600
-5.5014600
-5.5014600
-5.5014600
-5.4984100
-5.5029900
-5.5029900
-5.5045200
-5.5045200
-5.5029900
-5.5045200
-5.5029900
-5.5075700
-5.5060400
-5.5060400
-5.5014600
-5.5045200
-5.5029900
-5.4984100
-5.5014600
-5.5029900
-5.5029900
-5.5029900
-5.5045200
-5.5029900
-5.5045200
-5.5045200
-5.5029900
-5.5060400
-5.5029900
-5.5045200
-5.5045200
-5.5045200
-5.5029900
-5.5045200
-5.5045200
-5.5060400
-5.5045200
-5.5045200
-5.5045200
-5.5045200
-5.5075700
-5.5045200
-5.5060400
-5.5075700
-5.5045200
-5.5075700
-5.5121500
-5.5075700
-5.5060400
-5.5045200
-5.5075700
-5.5014600
-5.5014600
-5.5045200
-5.5045200
-5.5045200
-5.5014600
-5.5045200
-5.5060400
-5.5045200
-5.5060400
-5.5045200
-5.5045200
-5.5045200
-5.5060400
-5.5075700
-5.5075700
-5.5029900
-5.4999400
-5.5014600
-5.5029900
-5.5014600
-5.5014600
-5.5045200
-5.5045200
-5.5045200
-5.5014600
-5.5029900
-5.5014600
-5.5060400
-5.5029900
-5.5029900
-5.5029900
-5.4999400
-5.5014600
-5.5014600
-5.5029900
-5.5075700
-5.5060400
-5.5045200
-5.5060400
-5.5060400
-5.5045200
-5.5045200
-5.5045200
-5.5060400
-5.5060400
-5.5060400
-5.5075700
-5.5045200
-5.5045200
-5.4999400
-5.5029900
-5.5029900
-5.4999400
-5.5045200
-5.4984100
-5.5029900
-5.5014600
-5.5029900
-5.5060400
-5.5045200
-5.5060400
-5.5045200
-5.5029900
-5.5029900
-5.5029900
-5.5014600
-5.5045200
-5.5045200
-5.5045200
-5.5029900
-5.5029900
-5.5014600
-5.5014600
-5.4999400
-5.5029900
-5.5045200
-5.4999400
-5.4999400
-5.5029900
-5.5045200
-5.5014600
-5.5029900
-5.4999400
-5.4968900
-5.4984100
-5.5029900
-5.5014600
-5.5029900
-5.5029900
-5.5014600
-5.5075700
-5.5045200
-5.5014600
-5.5014600
-5.4999400
-5.5029900
-5.5014600
-5.5014600
-5.5029900
-5.4999400
-5.4999400
-5.4984100
-5.4999400
-5.4999400
-5.4999400
-5.4999400
-5.4999400
-5.5029900
-5.5029900
-5.5045200
-5.5045200
-5.4999400
-5.4999400
-5.5029900
-5.5060400
-5.5029900
-5.5029900
-5.5014600
-5.5029900
-5.4999400
-5.5045200
-5.5014600
-5.5029900
-5.5029900
-5.5045200
-5.5014600
-5.5014600
-5.5029900
-5.4999400
-5.5045200
-5.5014600
-5.5014600
-5.4999400
-5.5029900
-5.5014600
-5.5060400
-5.5045200
-5.4999400
-5.5014600
-5.5014600
-5.5029900
-5.5014600
-5.4984100
-5.5014600
-5.5045200
-5.5029900
-5.5014600
-5.5029900
-5.5014600
-5.5014600
-5.5014600
-5.5045200
-5.4999400
-5.5045200
-5.5029900
-5.5075700
-5.5045200
-5.5075700
-5.5060400
-5.5075700
-5.5060400
-5.5106200
-5.5060400
-5.5075700
-5.5075700
-5.5075700
-5.5075700
-5.5075700
-5.5090900
-5.5060400
-5.5090900
-5.5106200
-5.5090900
-5.5090900
-5.5075700
-5.5090900
-5.5106200
-5.5090900
-5.5060400
-5.5121500
-5.5060400
-5.5090900
-5.5075700
-5.5090900
-5.5106200
-5.5121500
-5.5090900
-5.5075700
-5.5090900
-5.5106200
-5.5121500
-5.5090900
-5.5106200
-5.5090900
-5.5121500
-5.5075700
-5.5106200
-5.5090900
-5.5106200
-5.5106200
-5.5106200
-5.5121500
-5.5090900
-5.5106200
-5.5060400
-5.5106200
-5.5060400
-5.5090900
-5.5106200
-5.5136700
-5.5090900
-5.5106200
-5.5090900
-5.5075700
-5.5090900
-5.5090900
-5.5136700
-5.5106200
-5.5136700
-5.5121500
-5.5121500
-5.5121500
-5.5136700
-5.5121500
-5.5152000
-5.5136700
-5.5121500
-5.5152000
-5.5106200
-5.5121500
-5.5121500
-5.5121500
-5.5106200
-5.5106200
-5.5121500
-5.5167200
-5.5152000
-5.5152000
-5.5167200
-5.5136700
-5.5106200
-5.5121500
-5.5121500
-5.5136700
-5.5152000
-5.5106200
-5.5167200
-5.5121500
-5.5136700
-5.5136700
-5.5136700
-5.5136700
-5.5152000
-5.5197800
-5.5121500
-5.5152000
-5.5136700
-5.5136700
-5.5121500
-5.5121500
-5.5106200
-5.5106200
-5.5106200
-5.5090900
-5.5121500
-5.5121500
-5.5106200
-5.5090900
-5.5090900
-5.5090900
-5.5121500
-5.5075700
-5.5106200
-5.5075700
-5.5136700
-5.5090900
-5.5152000
-5.5121500
-5.5090900
-5.5121500
-5.5106200
-5.5121500
-5.5075700
-5.5106200
-5.5090900
-5.5121500
-5.5121500
-5.5121500
-5.5167200
-5.5090900
-5.5121500
-5.5106200
-5.5106200
-5.5090900
-5.5075700
-5.5106200
-5.5121500
-5.5075700
-5.5106200
-5.5090900
-5.5075700
-5.5106200
-5.5075700
-5.5090900
-5.5060400
-5.5106200
-5.5090900
-5.5106200
-5.5075700
-5.5060400
-5.5060400
-5.5090900
-5.5060400
-5.5075700
-5.5060400
-5.5106200
-5.5060400
-5.5075700
-5.5060400
-5.5029900
-5.5045200
-5.5060400
-5.5106200
-5.5075700
-5.5090900
-5.5075700
-5.5045200
-5.5045200
-5.5060400
-5.5045200
-5.5029900
-5.5029900
-5.5045200
-5.5029900
-5.5029900
-5.5045200
-5.5045200
-5.5045200
-5.5090900
-5.5045200
-5.5014600
-5.5045200
-5.5060400
-5.5014600
-5.5029900
-5.5014600
-5.5014600
-5.4999400
-5.5014600
-5.4984100
-5.4999400
-5.5014600
-5.4999400
-5.4968900
-5.4984100
-5.4984100
-5.4999400
-5.4999400
-5.4984100
-5.4984100
-5.4968900
-5.4984100
-5.4999400
-5.4999400
-5.4984100
-5.4968900
-5.4953600
-5.4953600
-5.4968900
-5.4953600
-5.4938400
-5.4938400
-5.4938400
-5.4953600
-5.4938400
-5.4938400
-5.4938400
-5.4938400
-5.4938400
-5.4984100
-5.4923100
-5.4938400
-5.4984100
-5.4984100
-5.4984100
-5.5029900
-5.5060400
-5.5060400
-5.5045200
-5.5060400
-5.5075700
-5.5106200
-5.5121500
-5.5121500
-5.5136700
-5.5090900
-5.5136700
-5.5090900
-5.5090900
-5.5014600
-5.5029900
-5.5045200
-5.5045200
-5.5045200
-5.5014600
-5.5029900
-5.5045200
-5.5014600
-5.5045200
-5.5045200
-5.5014600
-5.5014600
-5.4984100
-5.4999400
-5.5029900
-5.5045200
-5.5029900
-5.4999400
-5.4999400
-5.5014600
-5.5014600
-5.5014600
-5.4999400
-5.4968900
-5.4999400
-5.4999400
-5.4968900
-5.4953600
-5.4999400
-5.4999400
-5.4968900
-5.4953600
-5.4953600
-5.4938400
-5.4938400
-5.4968900
-5.4999400
-5.4953600
-5.4938400
-5.4938400
-5.4907800
-5.4923100
-5.4984100
-5.4953600
-5.4968900
-5.4968900
-5.4984100
-5.4968900
-5.4938400
-5.4968900
-5.4938400
-5.4923100
-5.4968900
-5.4953600
-5.4953600
-5.4999400
-5.4984100
-5.4968900
-5.4938400
-5.4984100
-5.4938400
-5.4953600
-5.4968900
-5.4953600
-5.4953600
-5.4984100
-5.4968900
-5.4938400
-5.4938400
-5.4953600
-5.4968900
-5.4953600
-5.4938400
-5.4938400
-5.4938400
-5.4953600
-5.4953600
-5.4953600
-5.4938400
-5.4953600
-5.4907800
-5.4938400
-5.4923100
-5.4953600
-5.4923100
-5.4938400
-5.4938400
-5.4923100
-5.4923100
-5.4907800
-5.4892600
-5.4907800
-5.4923100
-5.4907800
-5.4938400
-5.4907800
-5.4923100
-5.4907800
-5.4953600
-5.4953600
-5.4953600
-5.4923100
-5.4907800
-5.4923100
-5.4907800
-5.4938400
-5.4892600
-5.4892600
-5.4816300
-5.4907800
-5.4892600
-5.4892600
-5.4907800
-5.4862100
-5.4923100
-5.4938400
-5.4907800
-5.4907800
-5.4907800
-5.4862100
-5.4892600
-5.4892600
-5.4923100
-5.4907800
-5.4907800
-5.4907800
-5.4907800
-5.4907800
-5.4862100
-5.4907800
-5.4923100
-5.4892600
-5.4892600
-5.4892600
-5.4862100
-5.4907800
-5.4846800
-5.4892600
-5.4892600
-5.4892600
-5.4862100
-5.4907800
-5.4907800
-5.4831500
-5.4892600
-5.4862100
-5.4862100
-5.4846800
-5.4892600
-5.4862100
-5.4862100
-5.4846800
-5.4862100
-5.4892600
-5.4907800
-5.4907800
-5.4862100
-5.4862100
-5.4846800
-5.4862100
-5.4862100
-5.4846800
-5.4831500
-5.4846800
-5.4892600
-5.4923100
-5.4831500
-5.4846800
-5.4846800
-5.4846800
-5.4816300
-5.4862100
-5.4846800
-5.4862100
-5.4892600
-5.4892600
-5.4892600
-5.4862100
-5.4831500
-5.4892600
-5.4862100
-5.4846800
-5.4862100
-5.4892600
-5.4892600
-5.4892600
-5.4923100
-5.4907800
-5.4892600
-5.4892600
-5.4846800
-5.4892600
-5.4923100
-5.4862100
-5.4862100
-5.4846800
-5.4892600
-5.4862100
-5.4892600
-5.4846800
-5.4862100
-5.4831500
-5.4831500
-5.4846800
-5.4862100
-5.4846800
-5.4816300
-5.4846800
-5.4862100
-5.4892600
-5.4862100
-5.4862100
-5.4862100
-5.4846800
-5.4862100
-5.4907800
-5.4846800
-5.4862100
-5.4892600
-5.4862100
-5.4862100
-5.4862100
-5.4892600
-5.4892600
-5.4892600
-5.4907800
-5.4892600
-5.4846800
-5.4862100
-5.4862100
-5.4862100
-5.4892600
-5.4892600
-5.4907800
-5.4862100
-5.4892600
-5.4846800
-5.4846800
-5.4907800
-5.4831500
-5.4816300
-5.4862100
-5.4862100
-5.4831500
-5.4862100
-5.4892600
-5.4907800
-5.4862100
-5.4892600
-5.4862100
-5.4907800
-5.4892600
-5.4862100
-5.4907800
-5.4892600
-5.4907800
-5.4831500
-5.4846800
-5.4846800
-5.4862100
-5.4831500
-5.4831500
-5.4862100
-5.4816300
-5.4831500
-5.4846800
-5.4816300
-5.4801000
-5.4801000
-5.4816300
-5.4846800
-5.4846800
-5.4846800
-5.4846800
-5.4846800
-5.4816300
-5.4907800
-5.4846800
-5.4816300
-5.4846800
-5.4816300
-5.4892600
-5.4831500
-5.4831500
-5.4770500
-5.4846800
-5.4831500
-5.4831500
-5.4846800
-5.4785800
-5.4770500
-5.4801000
-5.4801000
-5.4816300
-5.4846800
-5.4831500
-5.4816300
-5.4785800
-5.4801000
-5.4785800
-5.4816300
-5.4770500
-5.4816300
-5.4846800
-5.4816300
-5.4846800
-5.4785800
-5.4801000
-5.4785800
-5.4846800
-5.4831500
-5.4892600
-5.4816300
-5.4846800
-5.4846800
-5.4892600
-5.4816300
-5.4816300
-5.4831500
-5.4816300
-5.4816300
-5.4801000
-5.4816300
-5.4816300
-5.4846800
-5.4831500
-5.4846800
-5.4846800
-5.4816300
-5.4816300
-5.4816300
-5.4831500
-5.4801000
-5.4801000
-5.4801000
-5.4816300
-5.4816300
-5.4831500
-5.4862100
-5.4816300
-5.4785800
-5.4846800
-5.4816300
-5.4846800
-5.4831500
-5.4816300
-5.4801000
-5.4846800
-5.4846800
-5.4801000
-5.4816300
-5.4801000
-5.4801000
-5.4816300
-5.4846800
-5.4831500
-5.4816300
-5.4816300
-5.4816300
-5.4816300
-5.4816300
-5.4816300
-5.4816300
-5.4816300
-5.4816300
-5.4862100
-5.4801000
-5.4785800
-5.4816300
-5.4801000
-5.4785800
-5.4831500
-5.4785800
-5.4801000
-5.4831500
-5.4816300
-5.4831500
-5.4816300
-5.4816300
-5.4801000
-5.4801000
-5.4801000
-5.4831500
-5.4801000
-5.4785800
-5.4801000
-5.4801000
-5.4831500
-5.4801000
-5.4801000
-5.4785800
-5.4846800
-5.4801000
-5.4816300
-5.4831500
-5.4801000
-5.4801000
-5.4816300
-5.4816300
-5.4801000
-5.4801000
-5.4816300
-5.4831500
-5.4846800
-5.4846800
-5.4831500
-5.4801000
-5.4816300
-5.4846800
-5.4816300
-5.4785800
-5.4831500
-5.4831500
-5.4816300
-5.4831500
-5.4831500
-5.4801000
-5.4831500
-5.4801000
-5.4831500
-5.4846800
-5.4846800
-5.4846800
-5.4801000
-5.4862100
-5.4846800
-5.4862100
-5.4831500
-5.4816300
-5.4801000
-5.4831500
-5.4846800
-5.4816300
-5.4785800
-5.4801000
-5.4816300
-5.4816300
-5.4816300
-5.4816300
-5.4816300
-5.4770500
-5.4801000
-5.4801000
-5.4801000
-5.4816300
-5.4801000
-5.4801000
-5.4785800
-5.4801000
-5.4801000
-5.4785800
-5.4770500
-5.4801000
-5.4801000
-5.4785800
-5.4785800
-5.4770500
-5.4801000
-5.4801000
-5.4801000
-5.4801000
-5.4801000
-5.4785800
-5.4801000
-5.4816300
-5.4816300
-5.4770500
-5.4770500
-5.4816300
-5.4785800
-5.4816300
-5.4801000
-5.4801000
-5.4770500
-5.4770500
-5.4801000
-5.4801000
-5.4785800
-5.4785800
-5.4770500
-5.4785800
-5.4785800
-5.4801000
-5.4801000
-5.4755200
-5.4785800
-5.4770500
-5.4785800
-5.4770500
-5.4755200
-5.4709500
-5.4770500
-5.4801000
-5.4785800
-5.4785800
-5.4785800
-5.4785800
-5.4801000
-5.4816300
-5.4831500
-5.4831500
-5.4785800
-5.4801000
-5.4816300
-5.4862100
-5.4816300
-5.4801000
-5.4816300
-5.4801000
-5.4801000
-5.4785800
-5.4785800
-5.4785800
-5.4816300
-5.4785800
-5.4831500
-5.4785800
-5.4801000
-5.4785800
-5.4801000
-5.4785800
-5.4770500
-5.4801000
-5.4785800
-5.4801000
-5.4801000
-5.4816300
-5.4785800
-5.4816300
-5.4816300
-5.4831500
-5.4785800
-5.4770500
-5.4785800
-5.4816300
-5.4801000
-5.4801000
-5.4755200
-5.4801000
-5.4785800
-5.4770500
-5.4801000
-5.4785800
-5.4770500
-5.4831500
-5.4801000
-5.4816300
-5.4801000
-5.4785800
-5.4801000
-5.4770500
-5.4770500
-5.4770500
-5.4770500
-5.4785800
-5.4801000
-5.4740000
-5.4770500
-5.4801000
-5.4770500
-5.4770500
-5.4755200
-5.4755200
-5.4770500
-5.4740000
-5.4785800
-5.4740000
-5.4755200
-5.4755200
-5.4755200
-5.4755200
-5.4770500
-5.4755200
-5.4724700
-5.4755200
-5.4740000
-5.4785800
-5.4740000
-5.4755200
-5.4740000
-5.4785800
-5.4785800
-5.4740000
-5.4740000
-5.4740000
-5.4755200
-5.4740000
-5.4755200
-5.4755200
-5.4740000
-5.4740000
-5.4785800
-5.4755200
-5.4740000
-5.4755200
-5.4740000
-5.4724700
-5.4755200
-5.4755200
-5.4755200
-5.4724700
-5.4770500
-5.4740000
-5.4755200
-5.4755200
-5.4785800
-5.4724700
-5.4740000
-5.4724700
-5.4785800
-5.4770500
-5.4755200
-5.4740000
-5.4755200
-5.4770500
-5.4785800
-5.4770500
-5.4740000
-5.4740000
-5.4755200
-5.4770500
-5.4785800
-5.4740000
-5.4785800
-5.4770500
-5.4785800
-5.4770500
-5.4755200
-5.4785800
-5.4770500
-5.4785800
-5.4785800
-5.4755200
-5.4770500
-5.4770500
-5.4816300
-5.4801000
-5.4755200
-5.4755200
-5.4770500
-5.4755200
-5.4801000
-5.4785800
-5.4770500
-5.4816300
-5.4755200
-5.4770500
-5.4785800
-5.4785800
-5.4770500
-5.4770500
-5.4785800
-5.4770500
-5.4755200
-5.4755200
-5.4770500
-5.4724700
-5.4755200
-5.4740000
-5.4724700
-5.4724700
-5.4755200
-5.4709500
-5.4740000
-5.4724700
-5.4740000
-5.4740000
-5.4709500
-5.4740000
-5.4755200
-5.4724700
-5.4740000
-5.4755200
-5.4770500
-5.4785800
-5.4801000
-5.4816300
-5.4801000
-5.4846800
-5.4846800
-5.4846800
-5.4892600
-5.4907800
-5.4923100
-5.4907800
-5.4923100
-5.4892600
-5.4892600
-5.4862100
-5.4831500
-5.4846800
-5.4831500
-5.4831500
-5.4816300
-5.4801000
-5.4816300
-5.4770500
-5.4755200
-5.4785800
-5.4770500
-5.4801000
-5.4785800
-5.4755200
-5.4755200
-5.4755200
-5.4755200
-5.4770500
-5.4740000
-5.4755200
-5.4755200
-5.4724700
-5.4724700
-5.4709500
-5.4755200
-5.4724700
-5.4709500
-5.4679000
-5.4679000
-5.4724700
-5.4694200
-5.4709500
-5.4724700
-5.4694200
-5.4694200
-5.4679000
-5.4709500
-5.4679000
-5.4679000
-5.4709500
-5.4679000
-5.4694200
-5.4724700
-5.4709500
-5.4694200
-5.4694200
-5.4694200
-5.4694200
-5.4694200
-5.4679000
-5.4663700
-5.4694200
-5.4694200
-5.4679000
-5.4679000
-5.4709500
-5.4694200
-5.4679000
-5.4663700
-5.4694200
-5.4663700
-5.4709500
-5.4709500
-5.4694200
-5.4709500
-5.4694200
-5.4694200
-5.4679000
-5.4694200
-5.4694200
-5.4679000
-5.4648400
-5.4679000
-5.4648400
-5.4709500
-5.4648400
-5.4663700
-5.4663700
-5.4633200
-5.4617900
-5.4602700
-5.4617900
-5.4633200
-5.4633200
-5.4648400
-5.4648400
-5.4617900
-5.4648400
-5.4663700
-5.4602700
-5.4617900
-5.4648400
-5.4633200
-5.4633200
-5.4633200
-5.4648400
-5.4663700
-5.4617900
-5.4633200
-5.4587400
-5.4602700
-5.4617900
-5.4617900
-5.4617900
-5.4633200
-5.4633200
-5.4633200
-5.4617900
-5.4633200
-5.4633200
-5.4617900
-5.4617900
-5.4617900
-5.4617900
-5.4633200
-5.4602700
-5.4663700
-5.4602700
-5.4617900
-5.4602700
-5.4587400
-5.4602700
-5.4602700
-5.4587400
-5.4587400
-5.4602700
-5.4587400
-5.4617900
-5.4602700
-5.4602700
-5.4587400
-5.4617900
-5.4587400
-5.4587400
-5.4602700
-5.4617900
-5.4617900
-5.4587400
-5.4602700
-5.4602700
-5.4541600
-5.4602700
-5.4602700
-5.4602700
-5.4587400
-5.4602700
-5.4617900
-5.4602700
-5.4617900
-5.4602700
-5.4602700
-5.4602700
-5.4617900
-5.4633200
-5.4633200
-5.4633200
-5.4633200
-5.4648400
-5.4633200
-5.4617900
-5.4617900
-5.4633200
-5.4617900
-5.4617900
-5.4617900
-5.4633200
-5.4648400
-5.4617900
-5.4633200
-5.4633200
-5.4602700
-5.4617900
-5.4633200
-5.4633200
-5.4679000
-5.4648400
-5.4663700
-5.4663700
-5.4648400
-5.4663700
-5.4617900
-5.4633200
-5.4633200
-5.4633200
-5.4617900
-5.4617900
-5.4617900
-5.4617900
-5.4602700
-5.4617900
-5.4572100
-5.4602700
-5.4617900
-5.4602700
-5.4617900
-5.4587400
-5.4633200
-5.4617900
-5.4602700
-5.4602700
-5.4602700
-5.4602700
-5.4587400
-5.4602700
-5.4587400
-5.4602700
-5.4572100
-5.4602700
-5.4602700
-5.4572100
-5.4602700
-5.4572100
-5.4587400
-5.4617900
-5.4587400
-5.4587400
-5.4572100
-5.4526400
-5.4541600
-5.4602700
-5.4572100
-5.4541600
-5.4587400
-5.4572100
-5.4541600
-5.4541600
-5.4511100
-5.4541600
-5.4541600
-5.4572100
-5.4526400
-5.4541600
-5.4526400
-5.4541600
-5.4526400
-5.4572100
-5.4572100
-5.4572100
-5.4572100
-5.4572100
-5.4526400
-5.4541600
-5.4541600
-5.4541600
-5.4541600
-5.4541600
-5.4572100
-5.4587400
-5.4572100
-5.4572100
-5.4587400
-5.4541600
-5.4541600
-5.4572100
-5.4541600
-5.4587400
-5.4526400
-5.4572100
-5.4541600
-5.4587400
-5.4526400
-5.4495800
-5.4511100
-5.4526400
-5.4511100
-5.4526400
-5.4541600
-5.4526400
-5.4526400
-5.4511100
-5.4541600
-5.4511100
-5.4511100
-5.4495800
-5.4572100
-5.4495800
-5.4480600
-5.4526400
-5.4511100
-5.4480600
-5.4495800
-5.4511100
-5.4480600
-5.4495800
-5.4480600
-5.4480600
-5.4465300
-5.4480600
-5.4450100
-5.4480600
-5.4465300
-5.4480600
-5.4526400
-5.4480600
-5.4480600
-5.4480600
-5.4480600
-5.4450100
-5.4480600
-5.4495800
-5.4480600
-5.4495800
-5.4480600
-5.4495800
-5.4465300
-5.4465300
-5.4434800
-5.4480600
-5.4450100
-5.4434800
-5.4450100
-5.4450100
-5.4465300
-5.4480600
-5.4480600
-5.4465300
-5.4480600
-5.4465300
-5.4480600
-5.4450100
-5.4480600
-5.4465300
-5.4465300
-5.4465300
-5.4465300
-5.4450100
-5.4450100
-5.4480600
-5.4465300
-5.4480600
-5.4450100
-5.4465300
-5.4404300
-5.4465300
-5.4480600
-5.4495800
-5.4465300
-5.4480600
-5.4450100
-5.4434800
-5.4434800
-5.4419600
-5.4465300
-5.4450100
-5.4450100
-5.4450100
-5.4419600
-5.4419600
-5.4419600
-5.4434800
-5.4465300
-5.4450100
-5.4450100
-5.4450100
-5.4434800
-5.4434800
-5.4434800
-5.4465300
-5.4434800
-5.4450100
-5.4434800
-5.4480600
-5.4480600
-5.4480600
-5.4434800
-5.4434800
-5.4434800
-5.4419600
-5.4434800
-5.4419600
-5.4419600
-5.4450100
-5.4434800
-5.4434800
-5.4434800
-5.4434800
-5.4419600
-5.4434800
-5.4419600
-5.4404300
-5.4404300
-5.4419600
-5.4404300
-5.4434800
-5.4419600
-5.4419600
-5.4419600
-5.4450100
-5.4450100
-5.4450100
-5.4450100
-5.4419600
-5.4450100
-5.4419600
-5.4434800
-5.4419600
-5.4434800
-5.4434800
-5.4480600
-5.4465300
-5.4465300
-5.4450100
-5.4450100
-5.4434800
-5.4419600
-5.4450100
-5.4434800
-5.4480600
-5.4465300
-5.4450100
-5.4450100
-5.4434800
-5.4450100
-5.4465300
-5.4450100
-5.4419600
-5.4480600
-5.4419600
-5.4434800
-5.4450100
-5.4434800
-5.4434800
-5.4465300
-5.4404300
-5.4450100
-5.4450100
-5.4434800
-5.4434800
-5.4434800
-5.4434800
-5.4419600
-5.4434800
-5.4389000
-5.4389000
-5.4419600
-5.4419600
-5.4419600
-5.4404300
-5.4373800
-5.4389000
-5.4373800
-5.4358500
-5.4389000
-5.4404300
-5.4358500
-5.4358500
-5.4373800
-5.4373800
-5.4389000
-5.4358500
-5.4373800
-5.4358500
-5.4358500
-5.4389000
-5.4404300
-5.4389000
-5.4358500
-5.4389000
-5.4373800
-5.4343300
-5.4328000
-5.4343300
-5.4358500
-5.4373800
-5.4389000
-5.4373800
-5.4373800
-5.4358500
-5.4328000
-5.4328000
-5.4297500
-5.4297500
-5.4312700
-5.4297500
-5.4328000
-5.4312700
-5.4328000
-5.4297500
-5.4343300
-5.4312700
-5.4312700
-5.4328000
-5.4328000
-5.4358500
-5.4343300
-5.4373800
-5.4343300
-5.4358500
-5.4373800
-5.4343300
-5.4343300
-5.4297500
-5.4373800
-5.4358500
-5.4343300
-5.4328000
-5.4343300
-5.4267000
-5.4297500
-5.4297500
-5.4297500
-5.4297500
-5.4312700
-5.4312700
-5.4343300
-5.4312700
-5.4297500
-5.4297500
-5.4221200
-5.4297500
-5.4267000
-5.4267000
-5.4282200
-5.4282200
-5.4312700
-5.4297500
-5.4343300
-5.4297500
-5.4297500
-5.4312700
-5.4312700
-5.4312700
-5.4358500
-5.4312700
-5.4312700
-5.4236500
-5.4343300
-5.4312700
-5.4282200
-5.4297500
-5.4297500
-5.4312700
-5.4267000
-5.4312700
-5.4312700
-5.4282200
-5.4282200
-5.4282200
-5.4267000
-5.4297500
-5.4267000
-5.4267000
-5.4282200
-5.4297500
-5.4267000
-5.4205900
-5.4282200
-5.4221200
-5.4236500
-5.4236500
-5.4267000
-5.4267000
-5.4267000
-5.4267000
-5.4282200
-5.4221200
-5.4221200
-5.4282200
-5.4205900
-5.4221200
-5.4236500
-5.4236500
-5.4236500
-5.4282200
-5.4267000
-5.4236500
-5.4297500
-5.4236500
-5.4282200
-5.4267000
-5.4282200
-5.4282200
-5.4267000
-5.4267000
-5.4312700
-5.4312700
-5.4312700
-5.4267000
-5.4297500
-5.4297500
-5.4282200
-5.4282200
-5.4267000
-5.4312700
-5.4297500
-5.4297500
-5.4282200
-5.4282200
-5.4267000
-5.4282200
-5.4236500
-5.4267000
-5.4297500
-5.4282200
-5.4267000
-5.4236500
-5.4267000
-5.4205900
-5.4267000
-5.4205900
-5.4267000
-5.4236500
-5.4267000
-5.4282200
-5.4236500
-5.4267000
-5.4236500
-5.4236500
-5.4205900
-5.4282200
-5.4221200
-5.4221200
-5.4221200
-5.4267000
-5.4221200
-5.4236500
-5.4282200
-5.4236500
-5.4236500
-5.4221200
-5.4221200
-5.4205900
-5.4221200
-5.4205900
-5.4205900
-5.4175400
-5.4221200
-5.4205900
-5.4190700
-5.4221200
-5.4267000
-5.4221200
-5.4236500
-5.4236500
-5.4236500
-5.4297500
-5.4297500
-5.4312700
-5.4328000
-5.4343300
-5.4343300
-5.4373800
-5.4404300
-5.4434800
-5.4404300
-5.4389000
-5.4404300
-5.4404300
-5.4404300
-5.4373800
-5.4389000
-5.4358500
-5.4343300
-5.4358500
-5.4373800
-5.4312700
-5.4297500
-5.4312700
-5.4297500
-5.4328000
-5.4297500
-5.4343300
-5.4312700
-5.4358500
-5.4328000
-5.4312700
-5.4343300
-5.4297500
-5.4297500
-5.4267000
-5.4282200
-5.4282200
-5.4267000
-5.4297500
-5.4236500
-5.4236500
-5.4221200
-5.4221200
-5.4190700
-5.4190700
-5.4236500
-5.4205900
-5.4221200
-5.4236500
-5.4221200
-5.4267000
-5.4205900
-5.4267000
-5.4221200
-5.4190700
-5.4221200
-5.4221200
-5.4205900
-5.4236500
-5.4236500
-5.4205900
-5.4236500
-5.4205900
-5.4221200
-5.4205900
-5.4205900
-5.4175400
-5.4205900
-5.4190700
-5.4221200
-5.4205900
-5.4221200
-5.4221200
-5.4236500
-5.4221200
-5.4221200
-5.4221200
-5.4236500
-5.4221200
-5.4236500
-5.4221200
-5.4205900
-5.4221200
-5.4205900
-5.4221200
-5.4205900
-5.4175400
-5.4205900
-5.4205900
-5.4236500
-5.4190700
-5.4190700
-5.4160200
-5.4144900
-5.4190700
-5.4190700
-5.4205900
-5.4221200
-5.4190700
-5.4205900
-5.4190700
-5.4205900
-5.4205900
-5.4190700
-5.4190700
-5.4190700
-5.4190700
-5.4175400
-5.4205900
-5.4175400
-5.4190700
-5.4190700
-5.4144900
-5.4190700
-5.4175400
-5.4190700
-5.4160200
-5.4190700
-5.4160200
-5.4190700
-5.4190700
-5.4160200
-5.4160200
-5.4175400
-5.4175400
-5.4160200
-5.4175400
-5.4175400
-5.4190700
-5.4205900
-5.4175400
-5.4205900
-5.4190700
-5.4160200
-5.4190700
-5.4221200
-5.4190700
-5.4190700
-5.4175400
-5.4190700
-5.4190700
-5.4175400
-5.4190700
-5.4205900
-5.4205900
-5.4205900
-5.4205900
-5.4190700
-5.4190700
-5.4160200
-5.4160200
-5.4205900
-5.4221200
-5.4160200
-5.4175400
-5.4190700
-5.4221200
-5.4205900
-5.4205900
-5.4160200
-5.4190700
-5.4205900
-5.4190700
-5.4190700
-5.4190700
-5.4160200
-5.4175400
-5.4190700
-5.4205900
-5.4205900
-5.4190700
-5.4190700
-5.4190700
-5.4175400
-5.4205900
-5.4175400
-5.4221200
-5.4175400
-5.4190700
-5.4175400
-5.4175400
-5.4160200
-5.4190700
-5.4160200
-5.4205900
-5.4221200
-5.4190700
-5.4190700
-5.4205900
-5.4221200
-5.4190700
-5.4190700
-5.4205900
-5.4190700
-5.4205900
-5.4205900
-5.4221200
-5.4205900
-5.4221200
-5.4175400
-5.4221200
-5.4160200
-5.4190700
-5.4175400
-5.4190700
-5.4160200
-5.4175400
-5.4175400
-5.4221200
-5.4175400
-5.4160200
-5.4190700
-5.4160200
-5.4190700
-5.4221200
-5.4175400
-5.4205900
-5.4205900
-5.4190700
-5.4221200
-5.4221200
-5.4205900
-5.4205900
-5.4190700
-5.4205900
-5.4190700
-5.4175400
-5.4144900
-5.4190700
-5.4190700
-5.4175400
-5.4160200
-5.4190700
-5.4144900
-5.4175400
-5.4175400
-5.4144900
-5.4175400
-5.4175400
-5.4175400
-5.4160200
-5.4175400
-5.4175400
-5.4160200
-5.4175400
-5.4160200
-5.4160200
-5.4205900
-5.4205900
-5.4175400
-5.4175400
-5.4160200
-5.4175400
-5.4175400
-5.4160200
-5.4160200
-5.4190700
-5.4175400
-5.4236500
-5.4175400
-5.4221200
-5.4205900
-5.4175400
-5.4190700
-5.4190700
-5.4205900
-5.4144900
-5.4160200
-5.4175400
-5.4205900
-5.4205900
-5.4175400
-5.4160200
-5.4160200
-5.4175400
-5.4160200
-5.4175400
-5.4144900
-5.4175400
-5.4160200
-5.4160200
-5.4160200
-5.4160200
-5.4129600
-5.4175400
-5.4160200
-5.4144900
-5.4129600
-5.4160200
-5.4114400
-5.4129600
-5.4175400
-5.4114400
-5.4129600
-5.4114400
-5.4144900
-5.4175400
-5.4129600
-5.4129600
-5.4144900
-5.4160200
-5.4129600
-5.4144900
-5.4114400
-5.4099100
-5.4114400
-5.4114400
-5.4129600
-5.4160200
-5.4114400
-5.4129600
-5.4129600
-5.4083900
-5.4144900
-5.4129600
-5.4129600
-5.4083900
-5.4114400
-5.4144900
-5.4129600
-5.4144900
-5.4129600
-5.4099100
-5.4114400
-5.4129600
-5.4114400
-5.4114400
-5.4114400
-5.4144900
-5.4129600
-5.4144900
-5.4114400
-5.4114400
-5.4099100
-5.4114400
-5.4099100
-5.4114400
-5.4129600
-5.4083900
-5.4129600
-5.4099100
-5.4099100
-5.4099100
-5.4129600
-5.4099100
-5.4114400
-5.4083900
-5.4144900
-5.4129600
-5.4114400
-5.4144900
-5.4144900
-5.4144900
-5.4099100
-5.4114400
-5.4083900
-5.4129600
-5.4144900
-5.4160200
-5.4083900
-5.4099100
-5.4114400
-5.4099100
-5.4099100
-5.4083900
-5.4099100
-5.4083900
-5.4144900
-5.4114400
-5.4160200
-5.4129600
-5.4114400
-5.4129600
-5.4129600
-5.4144900
-5.4129600
-5.4129600
-5.4099100
-5.4114400
-5.4114400
-5.4160200
-5.4129600
-5.4129600
-5.4083900
-5.4144900
-5.4114400
-5.4099100
-5.4144900
-5.4144900
-5.4099100
-5.4114400
-5.4114400
-5.4114400
-5.4083900
-5.4083900
-5.4083900
-5.4129600
-5.4129600
-5.4114400
-5.4129600
-5.4083900
-5.4083900
-5.4114400
-5.4114400
-5.4114400
-5.4068600
-5.4114400
-5.4114400
-5.4144900
-5.4114400
-5.4083900
-5.4099100
-5.4114400
-5.4114400
-5.4099100
-5.4114400
-5.4114400
-5.4129600
-5.4114400
-5.4129600
-5.4099100
-5.4114400
-5.4129600
-5.4114400
-5.4129600
-5.4129600
-5.4114400
-5.4129600
-5.4144900
-5.4099100
-5.4129600
-5.4083900
-5.4114400
-5.4053300
-5.4114400
-5.4114400
-5.4099100
-5.4114400
-5.4099100
-5.4099100
-5.4068600
-5.4099100
-5.4114400
-5.4114400
-5.4068600
-5.4099100
-5.4114400
-5.4129600
-5.4129600
-5.4099100
-5.4099100
-5.4099100
-5.4114400
-5.4083900
-5.4114400
-5.4099100
-5.4129600
-5.4114400
-5.4129600
-5.4083900
-5.4114400
-5.4068600
-5.4068600
-5.4038100
-5.4083900
-5.4099100
-5.4068600
-5.4099100
-5.4099100
-5.4099100
-5.4083900
-5.4083900
-5.4068600
-5.4083900
-5.4129600
-5.4083900
-5.4099100
-5.4114400
-5.4083900
-5.4099100
-5.4099100
-5.4083900
-5.4068600
-5.4068600
-5.4099100
-5.4129600
-5.4083900
-5.4068600
-5.4083900
-5.4053300
-5.4053300
-5.4068600
-5.4053300
-5.4068600
-5.4038100
-5.4083900
-5.4068600
-5.4053300
-5.4022800
-5.4022800
-5.4038100
-5.4068600
-5.4053300
-5.4038100
-5.4022800
-5.4038100
-5.4053300
-5.4022800
-5.4053300
-5.4022800
-5.4022800
-5.4038100
-5.4022800
-5.4007600
-5.4022800
-5.4022800
-5.4022800
-5.4053300
-5.4038100
-5.4038100
-5.4022800
-5.3992300
-5.3992300
-5.4022800
-5.4007600
-5.3977100
-5.3992300
-5.3977100
-5.3992300
-5.4007600
-5.3992300
-5.3977100
-5.3977100
-5.3916000
-5.3977100
-5.3992300
-5.3977100
-5.4007600
-5.4007600
-5.3977100
-5.3977100
-5.4007600
-5.3992300
-5.4007600
-5.3977100
-5.3961800
-5.3992300
-5.4007600
-5.4007600
-5.3961800
-5.3977100
-5.4007600
-5.4007600
-5.3961800
-5.3977100
-5.4007600
-5.4007600
-5.3992300
-5.4022800
-5.3961800
-5.3961800
-5.4007600
-5.3977100
-5.3977100
-5.4007600
-5.3961800
-5.3961800
-5.4007600
-5.3992300
-5.4022800
-5.3977100
-5.4038100
-5.3961800
-5.3992300
-5.4007600
-5.4022800
-5.4007600
-5.3992300
-5.4007600
-5.3977100
-5.4022800
-5.4007600
-5.4007600
-5.3961800
-5.3992300
-5.4007600
-5.3992300
-5.4007600
-5.4007600
-5.4038100
-5.4007600
-5.3992300
-5.4022800
-5.4022800
-5.3961800
-5.3992300
-5.4022800
-5.4007600
-5.4022800
-5.3992300
-5.3992300
-5.3992300
-5.4007600
-5.3992300
-5.4007600
-5.3961800
-5.4007600
-5.3931300
-5.3992300
-5.3961800
-5.3931300
-5.3961800
-5.3931300
-5.3961800
-5.3961800
-5.3961800
-5.3961800
-5.3931300
-5.3916000
-5.3977100
-5.3931300
-5.3916000
-5.3931300
-5.3900800
-5.3900800
-5.3900800
-5.3916000
-5.3900800
-5.3916000
-5.3870200
-5.3885500
-5.3885500
-5.3900800
-5.3870200
-5.3931300
-5.3931300
-5.3977100
-5.3916000
-5.3916000
-5.3916000
-5.3931300
-5.3931300
-5.3900800
-5.3916000
-5.3900800
-5.3916000
-5.3931300
-5.3916000
-5.3931300
-5.3885500
-5.3916000
-5.3916000
-5.3900800
-5.3885500
-5.3916000
-5.3870200
-5.3885500
-5.3855000
-5.3885500
-5.3870200
-5.3839700
-5.3839700
-5.3839700
-5.3885500
-5.3870200
-5.3839700
-5.3839700
-5.3885500
-5.3870200
-5.3961800
-5.3870200
-5.3885500
-5.3900800
-5.3916000
-5.3916000
-5.3961800
-5.3961800
-5.3931300
-5.4007600
-5.3992300
-5.4022800
-5.4022800
-5.4007600
-5.4007600
-5.4053300
-5.4038100
-5.4038100
-5.4068600
-5.4007600
-5.4007600
-5.4007600
-5.4007600
-5.3961800
-5.3977100
-5.3916000
-5.3992300
-5.3992300
-5.3977100
-5.3977100
-5.3961800
-5.3992300
-5.3992300
-5.3992300
-5.3977100
-5.3961800
-5.3961800
-5.3992300
-5.3931300
-5.3992300
-5.3961800
-5.3931300
-5.3931300
-5.3916000
-5.3931300
-5.3961800
-5.3916000
-5.3900800
-5.3900800
-5.3885500
-5.3900800
-5.3870200
-5.3900800
-5.3839700
-5.3855000
-5.3870200
-5.3870200
-5.3870200
-5.3885500
-5.3900800
-5.3855000
-5.3916000
-5.3885500
-5.3885500
-5.3855000
-5.3839700
-5.3870200
-5.3870200
-5.3870200
-5.3885500
-5.3900800
-5.3885500
-5.3885500
-5.3885500
-5.3885500
-5.3885500
-5.3900800
-5.3885500
-5.3916000
-5.3931300
-5.3855000
-5.3870200
-5.3900800
-5.3900800
-5.3870200
-5.3855000
-5.3870200
-5.3870200
-5.3855000
-5.3885500
-5.3855000
-5.3870200
-5.3870200
-5.3855000
-5.3855000
-5.3870200
-5.3855000
-5.3855000
-5.3885500
-5.3870200
-5.3900800
-5.3885500
-5.3900800
-5.3870200
-5.3900800
-5.3900800
-5.3870200
-5.3885500
-5.3870200
-5.3900800
-5.3885500
-5.3870200
-5.3870200
-5.3870200
-5.3870200
-5.3870200
-5.3885500
-5.3870200
-5.3855000
-5.3870200
-5.3855000
-5.3839700
-5.3870200
-5.3870200
-5.3839700
-5.3824500
-5.3855000
-5.3839700
-5.3839700
-5.3839700
-5.3855000
-5.3870200
-5.3839700
-5.3855000
-5.3870200
-5.3839700
-5.3809200
-5.3855000
-5.3824500
-5.3839700
-5.3824500
-5.3824500
-5.3824500
-5.3809200
-5.3824500
-5.3855000
-5.3793900
-5.3793900
-5.3809200
-5.3809200
-5.3809200
-5.3793900
-5.3809200
-5.3824500
-5.3824500
-5.3839700
-5.3839700
-5.3824500
-5.3824500
-5.3855000
-5.3839700
-5.3839700
-5.3855000
-5.3855000
-5.3855000
-5.3885500
-5.3855000
-5.3839700
-5.3839700
-5.3855000
-5.3809200
-5.3809200
-5.3839700
-5.3824500
-5.3809200
-5.3809200
-5.3809200
-5.3824500
-5.3839700
-5.3809200
-5.3824500
-5.3855000
-5.3809200
-5.3809200
-5.3824500
-5.3809200
-5.3824500
-5.3824500
-5.3809200
-5.3824500
-5.3809200
-5.3809200
-5.3793900
-5.3809200
-5.3809200
-5.3809200
-5.3809200
-5.3793900
-5.3763400
-5.3793900
-5.3809200
-5.3809200
-5.3793900
-5.3778700
-5.3763400
-5.3793900
-5.3778700
-5.3778700
-5.3778700
-5.3793900
-5.3778700
-5.3793900
-5.3809200
-5.3778700
-5.3778700
-5.3778700
-5.3793900
-5.3763400
-5.3778700
-5.3793900
-5.3763400
-5.3793900
-5.3748200
-5.3748200
-5.3732900
-5.3732900
-5.3732900
-5.3748200
-5.3778700
-5.3748200
-5.3748200
-5.3793900
-5.3793900
-5.3778700
-5.3748200
-5.3748200
-5.3732900
-5.3748200
-5.3763400
-5.3763400
-5.3748200
-5.3763400
-5.3763400
-5.3732900
-5.3717700
-5.3748200
-5.3778700
-5.3732900
-5.3732900
-5.3732900
-5.3732900
-5.3748200
-5.3748200
-5.3732900
-5.3748200
-5.3732900
-5.3732900
-5.3732900
-5.3732900
-5.3732900
-5.3717700
-5.3732900
-5.3717700
-5.3748200
-5.3748200
-5.3778700
-5.3763400
-5.3763400
-5.3748200
-5.3748200
-5.3717700
-5.3732900
-5.3732900
-5.3732900
-5.3717700
-5.3732900
-5.3717700
-5.3717700
-5.3748200
-5.3732900
-5.3702400
-5.3717700
-5.3702400
-5.3732900
-5.3717700
-5.3732900
-5.3717700
-5.3702400
-5.3778700
-5.3732900
-5.3687100
-5.3717700
-5.3717700
-5.3687100
-5.3717700
-5.3702400
-5.3717700
-5.3702400
-5.3702400
-5.3687100
-5.3732900
-5.3687100
-5.3717700
-5.3687100
-5.3717700
-5.3717700
-5.3717700
-5.3702400
-5.3671900
-5.3732900
-5.3671900
-5.3702400
-5.3656600
-5.3702400
-5.3671900
-5.3702400
-5.3656600
-5.3687100
-5.3702400
-5.3671900
-5.3687100
-5.3702400
-5.3687100
-5.3702400
-5.3671900
-5.3671900
-5.3671900
-5.3687100
-5.3687100
-5.3671900
-5.3671900
-5.3656600
-5.3671900
-5.3641400
-5.3656600
-5.3671900
-5.3641400
-5.3687100
-5.3687100
-5.3702400
-5.3671900
-5.3671900
-5.3687100
-5.3641400
-5.3671900
-5.3671900
-5.3702400
-5.3671900
-5.3687100
-5.3717700
-5.3702400
-5.3687100
-5.3671900
-5.3656600
-5.3641400
-5.3671900
-5.3671900
-5.3702400
-5.3671900
-5.3702400
-5.3671900
-5.3671900
-5.3671900
-5.3656600
-5.3656600
-5.3656600
-5.3671900
-5.3671900
-5.3671900
-5.3656600
-5.3641400
-5.3610800
-5.3641400
-5.3641400
-5.3641400
-5.3595600
-5.3656600
-5.3656600
-5.3641400
-5.3671900
-5.3641400
-5.3610800
-5.3656600
-5.3641400
-5.3610800
-5.3656600
-5.3610800
-5.3671900
-5.3656600
-5.3656600
-5.3641400
-5.3595600
-5.3610800
-5.3595600
-5.3641400
-5.3641400
-5.3641400
-5.3641400
-5.3641400
-5.3671900
-5.3656600
-5.3656600
-5.3656600
-5.3641400
-5.3595600
-5.3610800
-5.3610800
-5.3656600
-5.3641400
-5.3641400
-5.3610800
-5.3610800
-5.3610800
-5.3641400
-5.3641400
-5.3641400
-5.3641400
-5.3671900
-5.3671900
-5.3656600
-5.3656600
-5.3671900
-5.3656600
-5.3656600
-5.3595600
-5.3610800
-5.3641400
-5.3610800
-5.3641400
-5.3656600
-5.3610800
-5.3641400
-5.3610800
-5.3641400
-5.3580300
-5.3641400
-5.3656600
-5.3641400
-5.3656600
-5.3656600
-5.3641400
-5.3610800
-5.3580300
-5.3580300
-5.3610800
-5.3580300
-5.3610800
-5.3610800
-5.3610800
-5.3641400
-5.3610800
-5.3580300
-5.3610800
-5.3565100
-5.3565100
-5.3580300
-5.3565100
-5.3595600
-5.3580300
-5.3580300
-5.3595600
-5.3610800
-5.3580300
-5.3580300
-5.3580300
-5.3580300
-5.3595600
-5.3595600
-5.3641400
-5.3565100
-5.3565100
-5.3595600
-5.3565100
-5.3580300
-5.3595600
-5.3580300
-5.3610800
-5.3580300
-5.3580300
-5.3656600
-5.3595600
-5.3641400
-5.3656600
-5.3610800
-5.3580300
-5.3610800
-5.3580300
-5.3656600
-5.3595600
-5.3610800
-5.3610800
-5.3580300
-5.3610800
-5.3565100
-5.3595600
-5.3610800
-5.3641400
-5.3580300
-5.3610800
-5.3549800
-5.3595600
-5.3595600
-5.3580300
-5.3595600
-5.3580300
-5.3610800
-5.3549800
-5.3565100
-5.3580300
-5.3580300
-5.3595600
-5.3580300
-5.3580300
-5.3565100
-5.3565100
-5.3580300
-5.3580300
-5.3580300
-5.3641400
-5.3595600
-5.3641400
-5.3595600
-5.3610800
-5.3610800
-5.3641400
-5.3595600
-5.3641400
-5.3580300
-5.3595600
-5.3610800
-5.3610800
-5.3595600
-5.3580300
-5.3549800
-5.3580300
-5.3610800
-5.3595600
-5.3610800
-5.3595600
-5.3656600
-5.3595600
-5.3565100
-5.3580300
-5.3595600
-5.3565100
-5.3580300
-5.3595600
-5.3610800
-5.3595600
-5.3641400
-5.3595600
-5.3580300
-5.3595600
-5.3580300
-5.3565100
-5.3580300
-5.3595600
-5.3565100
-5.3565100
-5.3565100
-5.3565100
-5.3549800
-5.3565100
-5.3595600
-5.3549800
-5.3549800
-5.3580300
-5.3580300
-5.3580300
-5.3565100
-5.3595600
-5.3565100
-5.3580300
-5.3580300
-5.3565100
-5.3595600
-5.3580300
-5.3549800
-5.3565100
-5.3580300
-5.3580300
-5.3549800
-5.3565100
-5.3549800
-5.3549800
-5.3580300
-5.3565100
-5.3580300
-5.3580300
-5.3580300
-5.3565100
-5.3580300
-5.3580300
-5.3595600
-5.3641400
-5.3580300
-5.3610800
-5.3580300
-5.3595600
-5.3580300
-5.3610800
-5.3565100
-5.3595600
-5.3549800
-5.3565100
-5.3580300
-5.3595600
-5.3549800
-5.3580300
-5.3534500
-5.3549800
-5.3595600
-5.3565100
-5.3580300
-5.3595600
-5.3641400
-5.3580300
-5.3580300
-5.3580300
-5.3610800
-5.3641400
-5.3595600
-5.3610800
-5.3610800
-5.3549800
-5.3565100
-5.3595600
-5.3595600
-5.3610800
-5.3580300
-5.3549800
-5.3565100
-5.3565100
-5.3549800
-5.3549800
-5.3549800
-5.3519300
-5.3565100
-5.3519300
-5.3549800
-5.3549800
-5.3549800
-5.3565100
-5.3549800
-5.3534500
-5.3565100
-5.3580300
-5.3534500
-5.3519300
-5.3565100
-5.3565100
-5.3549800
-5.3549800
-5.3534500
-5.3504000
-5.3549800
-5.3534500
-5.3549800
-5.3549800
-5.3565100
-5.3549800
-5.3534500
-5.3549800
-5.3549800
-5.3549800
-5.3519300
-5.3534500
-5.3519300
-5.3534500
-5.3504000
-5.3534500
-5.3519300
-5.3519300
-5.3565100
-5.3534500
-5.3534500
-5.3534500
-5.3549800
-5.3519300
-5.3534500
-5.3488800
-5.3534500
-5.3488800
-5.3473500
-5.3473500
-5.3504000
-5.3488800
-5.3488800
-5.3504000
-5.3504000
-5.3504000
-5.3504000
-5.3443000
-5.3488800
-5.3519300
-5.3519300
-5.3519300
-5.3504000
-5.3534500
-5.3534500
-5.3519300
-5.3549800
-5.3534500
-5.3549800
-5.3595600
-5.3595600
-5.3641400
-5.3656600
-5.3610800
-5.3641400
-5.3610800
-5.3671900
-5.3687100
-5.3687100
-5.3687100
-5.3687100
-5.3702400
-5.3671900
-5.3641400
-5.3595600
-5.3641400
-5.3565100
-5.3595600
-5.3565100
-5.3534500
-5.3565100
-5.3580300
-5.3549800
-5.3580300
-5.3595600
-5.3549800
-5.3595600
-5.3549800
-5.3549800
-5.3549800
-5.3534500
-5.3549800
-5.3549800
-5.3519300
-5.3565100
-5.3519300
-5.3504000
-5.3504000
-5.3519300
-5.3534500
-5.3488800
-5.3519300
-5.3488800
-5.3519300
-5.3488800
-5.3473500
-5.3488800
-5.3473500
-5.3458300
-5.3473500
-5.3488800
-5.3458300
-5.3488800
-5.3443000
-5.3473500
-5.3473500
-5.3473500
-5.3458300
-5.3504000
-5.3458300
-5.3488800
-5.3443000
-5.3488800
-5.3458300
-5.3473500
-5.3504000
-5.3458300
-5.3458300
-5.3443000
-5.3427700
-5.3458300
-5.3473500
-5.3443000
-5.3473500
-5.3458300
-5.3427700
-5.3458300
-5.3443000
-5.3427700
-5.3443000
-5.3412500
-5.3443000
-5.3488800
-5.3427700
-5.3427700
-5.3473500
-5.3427700
-5.3397200
-5.3412500
-5.3412500
-5.3412500
-5.3458300
-5.3397200
-5.3443000
-5.3412500
-5.3427700
-5.3427700
-5.3427700
-5.3427700
-5.3427700
-5.3397200
-5.3412500
-5.3412500
-5.3427700
-5.3412500
-5.3427700
-5.3443000
-5.3412500
-5.3427700
-5.3412500
-5.3443000
-5.3427700
-5.3443000
-5.3473500
-5.3427700
-5.3443000
-5.3412500
-5.3412500
-5.3443000
-5.3443000
-5.3427700
-5.3427700
-5.3427700
-5.3443000
-5.3458300
-5.3427700
-5.3397200
-5.3397200
-5.3443000
-5.3427700
-5.3458300
-5.3412500
-5.3412500
-5.3427700
-5.3427700
-5.3412500
-5.3382000
-5.3412500
-5.3382000
-5.3397200
-5.3412500
-5.3473500
-5.3443000
-5.3443000
-5.3427700
-5.3427700
-5.3397200
-5.3427700
-5.3427700
-5.3382000
-5.3412500
-5.3427700
-5.3458300
-5.3397200
-5.3397200
-5.3382000
-5.3397200
-5.3397200
-5.3443000
-5.3397200
-5.3412500
-5.3382000
-5.3397200
-5.3397200
-5.3382000
-5.3427700
-5.3397200
-5.3351400
-5.3382000
-5.3397200
-5.3351400
-5.3412500
-5.3366700
-5.3397200
-5.3443000
-5.3366700
-5.3382000
-5.3366700
-5.3366700
-5.3351400
-5.3351400
-5.3382000
-5.3382000
-5.3412500
-5.3397200
-5.3366700
-5.3366700
-5.3351400
-5.3351400
-5.3351400
-5.3336200
-5.3412500
-5.3366700
-5.3412500
-5.3366700
-5.3427700
-5.3382000
-5.3397200
-5.3382000
-5.3366700
-5.3366700
-5.3412500
-5.3397200
-5.3382000
-5.3397200
-5.3382000
-5.3382000
-5.3366700
-5.3382000
-5.3366700
-5.3397200
-5.3382000
-5.3397200
-5.3366700
-5.3382000
-5.3427700
-5.3366700
-5.3366700
-5.3382000
-5.3366700
-5.3382000
-5.3397200
-5.3366700
-5.3336200
-5.3382000
-5.3351400
-5.3366700
-5.3336200
-5.3382000
-5.3382000
-5.3382000
-5.3366700
-5.3382000
-5.3382000
-5.3351400
-5.3351400
-5.3351400
-5.3305700
-5.3336200
-5.3290400
-5.3305700
-5.3351400
-5.3305700
-5.3366700
-5.3351400
-5.3305700
-5.3305700
-5.3336200
-5.3305700
-5.3336200
-5.3305700
-5.3336200
-5.3305700
-5.3351400
-5.3305700
-5.3305700
-5.3290400
-5.3336200
-5.3290400
-5.3244600
-5.3275100
-5.3290400
-5.3275100
-5.3290400
-5.3275100
-5.3305700
-5.3275100
-5.3351400
-5.3290400
-5.3305700
-5.3290400
-5.3275100
-5.3305700
-5.3290400
-5.3336200
-5.3275100
-5.3305700
-5.3275100
-5.3336200
-5.3259900
-5.3290400
-5.3290400
-5.3275100
-5.3259900
-5.3290400
-5.3259900
-5.3290400
-5.3275100
-5.3290400
-5.3305700
-5.3229400
-5.3290400
-5.3290400
-5.3305700
-5.3290400
-5.3275100
-5.3275100
-5.3275100
-5.3275100
-5.3259900
-5.3290400
-5.3305700
-5.3275100
-5.3275100
-5.3290400
-5.3305700
-5.3290400
-5.3336200
-5.3305700
-5.3305700
-5.3336200
-5.3336200
-5.3336200
-5.3305700
-5.3336200
-5.3305700
-5.3305700
-5.3305700
-5.3305700
-5.3305700
-5.3275100
-5.3305700
-5.3305700
-5.3305700
-5.3351400
-5.3336200
-5.3336200
-5.3305700
-5.3336200
-5.3305700
-5.3336200
-5.3336200
-5.3305700
-5.3275100
-5.3305700
-5.3336200
-5.3275100
-5.3275100
-5.3275100
-5.3336200
-5.3259900
-5.3336200
-5.3305700
-5.3351400
-5.3275100
-5.3290400
-5.3305700
-5.3275100
-5.3275100
-5.3259900
-5.3275100
-5.3290400
-5.3275100
-5.3259900
-5.3229400
-5.3214100
-5.3244600
-5.3259900
-5.3275100
-5.3244600
-5.3259900
-5.3259900
-5.3259900
-5.3259900
-5.3259900
-5.3290400
-5.3275100
-5.3290400
-5.3275100
-5.3259900
-5.3275100
-5.3275100
-5.3305700
-5.3259900
-5.3275100
-5.3275100
-5.3275100
-5.3305700
-5.3305700
-5.3290400
-5.3336200
-5.3275100
-5.3336200
-5.3290400
-5.3275100
-5.3259900
-5.3305700
-5.3290400
-5.3290400
-5.3336200
-5.3259900
-5.3305700
-5.3290400
-5.3290400
-5.3290400
-5.3259900
-5.3305700
-5.3290400
-5.3259900
-5.3244600
-5.3259900
-5.3305700
-5.3290400
-5.3259900
-5.3290400
-5.3229400
-5.3275100
-5.3290400
-5.3290400
-5.3305700
-5.3305700
-5.3275100
-5.3305700
-5.3290400
-5.3305700
-5.3290400
-5.3290400
-5.3275100
-5.3275100
-5.3290400
-5.3275100
-5.3275100
-5.3305700
-5.3290400
-5.3305700
-5.3290400
-5.3259900
-5.3305700
-5.3290400
-5.3259900
-5.3259900
-5.3275100
-5.3275100
-5.3259900
-5.3305700
-5.3290400
-5.3305700
-5.3336200
-5.3290400
-5.3290400
-5.3259900
-5.3290400
-5.3290400
-5.3305700
-5.3305700
-5.3275100
-5.3305700
-5.3275100
-5.3290400
-5.3290400
-5.3244600
-5.3275100
-5.3275100
-5.3275100
-5.3244600
-5.3244600
-5.3259900
-5.3244600
-5.3259900
-5.3214100
-5.3259900
-5.3244600
-5.3244600
-5.3290400
-5.3229400
-5.3275100
-5.3229400
-5.3244600
-5.3244600
-5.3229400
-5.3198900
-5.3259900
-5.3229400
-5.3244600
-5.3259900
-5.3214100
-5.3183600
-5.3214100
-5.3244600
-5.3244600
-5.3229400
-5.3183600
-5.3214100
-5.3198900
-5.3214100
-5.3214100
-5.3198900
-5.3214100
-5.3259900
-5.3275100
-5.3275100
-5.3259900
-5.3244600
-5.3244600
-5.3259900
-5.3275100
-5.3229400
-5.3229400
-5.3229400
-5.3229400
-5.3259900
-5.3259900
-5.3214100
-5.3244600
-5.3229400
-5.3198900
-5.3214100
-5.3198900
-5.3229400
-5.3198900
-5.3214100
-5.3214100
-5.3214100
-5.3183600
-5.3214100
-5.3198900
-5.3198900
-5.3229400
-5.3198900
-5.3198900
-5.3214100
-5.3214100
-5.3214100
-5.3198900
-5.3198900
-5.3214100
-5.3183600
-5.3229400
-5.3198900
-5.3183600
-5.3198900
-5.3183600
-5.3198900
-5.3168300
-5.3183600
-5.3198900
-5.3183600
-5.3153100
-5.3168300
-5.3198900
-5.3153100
-5.3198900
-5.3198900
-5.3214100
-5.3229400
-5.3198900
-5.3168300
-5.3198900
-5.3183600
-5.3183600
-5.3198900
-5.3214100
-5.3168300
-5.3168300
-5.3168300
-5.3153100
-5.3168300
-5.3168300
-5.3183600
-5.3183600
-5.3183600
-5.3168300
-5.3183600
-5.3183600
-5.3137800
-5.3168300
-5.3183600
-5.3198900
-5.3168300
-5.3168300
-5.3168300
-5.3168300
-5.3137800
-5.3153100
-5.3137800
-5.3137800
-5.3092000
-5.3122600
-5.3137800
-5.3122600
-5.3107300
-5.3137800
-5.3122600
-5.3107300
-5.3107300
-5.3092000
-5.3092000
-5.3092000
-5.3092000
-5.3122600
-5.3107300
-5.3107300
-5.3122600
-5.3122600
-5.3061500
-5.3092000
-5.3076800
-5.3107300
-5.3092000
-5.3092000
-5.3092000
-5.3122600
-5.3061500
-5.3076800
-5.3092000
-5.3092000
-5.3122600
-5.3092000
-5.3137800
-5.3107300
-5.3168300
-5.3153100
-5.3153100
-5.3107300
-5.3137800
-5.3122600
-5.3107300
-5.3122600
-5.3122600
-5.3122600
-5.3122600
-5.3122600
-5.3122600
-5.3107300
-5.3107300
-5.3107300
-5.3092000
-5.3122600
-5.3137800
-5.3122600
-5.3137800
-5.3107300
-5.3107300
-5.3107300
-5.3122600
-5.3107300
-5.3107300
-5.3076800
-5.3092000
-5.3092000
-5.3107300
-5.3092000
-5.3107300
-5.3092000
-5.3122600
-5.3122600
-5.3092000
-5.3107300
-5.3107300
-5.3076800
-5.3092000
-5.3122600
-5.3061500
-5.3061500
-5.3092000
-5.3107300
-5.3076800
-5.3061500
-5.3061500
-5.2985200
-5.3046300
-5.3046300
-5.3046300
-5.3031000
-5.3000500
-5.3000500
-5.3000500
-5.3046300
-5.3000500
-5.3031000
-5.3000500
-5.3000500
-5.2985200
-5.3031000
-5.3031000
-5.2985200
-5.2985200
-5.3031000
-5.3046300
-5.3000500
-5.3031000
-5.3061500
-5.2985200
-5.3000500
-5.3031000
-5.2985200
-5.2985200
-5.2985200
-5.3000500
-5.3031000
-5.3031000
-5.3000500
-5.2985200
-5.3031000
-5.3031000
-5.3046300
-5.3000500
-5.3031000
-5.2970000
-5.3031000
-5.3031000
-5.3061500
-5.2970000
-5.3031000
-5.3031000
-5.3000500
-5.3031000
-5.3031000
-5.3031000
-5.2985200
-5.2985200
-5.2970000
-5.3000500
-5.3000500
-5.2985200
-5.2985200
-5.2985200
-5.2970000
-5.2985200
-5.2970000
-5.2985200
-5.2985200
-5.2970000
-5.3031000
-5.3031000
-5.2970000
-5.2939500
-5.2970000
-5.2985200
-5.2985200
-5.3000500
-5.2970000
-5.2970000
-5.2939500
-5.2954700
-5.2939500
-5.2970000
-5.2970000
-5.2954700
-5.2970000
-5.2970000
-5.2970000
-5.2985200
-5.3031000
-5.3000500
-5.3031000
-5.3000500
-5.3061500
-5.3031000
-5.3076800
-5.3076800
-5.3092000
-5.3092000
-5.3092000
-5.3137800
-5.3092000
-5.3137800
-5.3137800
-5.3168300
-5.3137800
-5.3153100
-5.3137800
-5.3107300
-5.3092000
-5.3076800
-5.3061500
-5.3061500
-5.3076800
-5.3031000
-5.3031000
-5.3031000
-5.3046300
-5.3031000
-5.3031000
-5.3000500
-5.3000500
-5.2970000
-5.3046300
-5.3000500
-5.2985200
-5.3031000
-5.3031000
-5.3031000
-5.3031000
-5.2985200
-5.2985200
-5.2985200
-5.2954700
-5.2985200
-5.2970000
-5.2954700
-5.2970000
-5.2954700
-5.2924200
-5.2939500
-5.2954700
-5.2954700
-5.2954700
-5.2924200
-5.2939500
-5.2939500
-5.2970000
-5.2878400
-5.2908900
-5.2954700
-5.2939500
-5.2924200
-5.2893700
-5.2970000
-5.2908900
-5.2939500
-5.2939500
-5.2939500
-5.2924200
-5.2908900
-5.2893700
-5.2908900
-5.2908900
-5.2893700
-5.2908900
-5.2893700
-5.2939500
-5.2908900
-5.2924200
-5.2924200
-5.2924200
-5.2878400
-5.2893700
-5.2908900
-5.2878400
-5.2924200
-5.2924200
-5.2908900
-5.2908900
-5.2939500
-5.2893700
-5.2939500
-5.2908900
-5.2893700
-5.2939500
-5.2924200
-5.2893700
-5.2893700
-5.2924200
-5.2908900
-5.2924200
-5.2908900
-5.2863200
-5.2939500
-5.2893700
-5.2893700
-5.2939500
-5.2908900
-5.2863200
-5.2863200
-5.2878400
-5.2863200
-5.2893700
-5.2924200
-5.2878400
-5.2924200
-5.2893700
-5.2908900
-5.2893700
-5.2863200
-5.2878400
-5.2893700
-5.2924200
-5.2893700
-5.2924200
-5.2908900
-5.2954700
-5.2908900
-5.2908900
-5.2893700
-5.2908900
-5.2847900
-5.2893700
-5.2893700
-5.2908900
-5.2863200
-5.2893700
-5.2908900
-5.2878400
-5.2893700
-5.2893700
-5.2908900
-5.2847900
-5.2893700
-5.2893700
-5.2893700
-5.2893700
-5.2847900
-5.2893700
-5.2893700
-5.2908900
-5.2893700
-5.2893700
-5.2878400
-5.2893700
-5.2893700
-5.2924200
-5.2878400
-5.2863200
-5.2893700
-5.2863200
-5.2878400
-5.2878400
-5.2878400
-5.2878400
-5.2878400
-5.2878400
-5.2893700
-5.2878400
-5.2863200
-5.2878400
-5.2878400
-5.2893700
-5.2847900
-5.2878400
-5.2832600
-5.2863200
-5.2878400
-5.2878400
-5.2878400
-5.2878400
-5.2847900
-5.2908900
-5.2924200
-5.2878400
-5.2878400
-5.2893700
-5.2908900
-5.2878400
-5.2893700
-5.2878400
-5.2893700
-5.2893700
-5.2893700
-5.2924200
-5.2939500
-5.2924200
-5.2878400
-5.2878400
-5.2878400
-5.2863200
-5.2893700
-5.2878400
-5.2863200
-5.2863200
-5.2878400
-5.2924200
-5.2878400
-5.2908900
-5.2878400
-5.2878400
-5.2878400
-5.2893700
-5.2893700
-5.2863200
-5.2908900
-5.2908900
-5.2908900
-5.2893700
-5.2832600
-5.2863200
-5.2863200
-5.2893700
-5.2893700
-5.2863200
-5.2832600
-5.2878400
-5.2863200
-5.2893700
-5.2893700
-5.2847900
-5.2832600
-5.2863200
-5.2863200
-5.2893700
-5.2893700
-5.2847900
-5.2847900
-5.2863200
-5.2863200
-5.2832600
-5.2817400
-5.2817400
-5.2817400
-5.2832600
-5.2863200
-5.2832600
-5.2832600
-5.2847900
-5.2847900
-5.2847900
-5.2817400
-5.2847900
-5.2832600
-5.2817400
-5.2817400
-5.2847900
-5.2786900
-5.2817400
-5.2832600
-5.2832600
-5.2817400
-5.2817400
-5.2832600
-5.2817400
-5.2832600
-5.2847900
-5.2878400
-5.2878400
-5.2847900
-5.2878400
-5.2878400
-5.2863200
-5.2878400
-5.2847900
-5.2847900
-5.2863200
-5.2863200
-5.2847900
-5.2863200
-5.2847900
-5.2817400
-5.2878400
-5.2863200
-5.2863200
-5.2863200
-5.2802100
-5.2832600
-5.2847900
-5.2817400
-5.2802100
-5.2817400
-5.2802100
-5.2817400
-5.2817400
-5.2847900
-5.2802100
-5.2817400
-5.2802100
-5.2817400
-5.2832600
-5.2802100
-5.2802100
-5.2817400
-5.2817400
-5.2832600
-5.2863200
-5.2802100
-5.2832600
-5.2817400
-5.2802100
-5.2832600
-5.2832600
-5.2786900
-5.2802100
-5.2817400
-5.2802100
-5.2817400
-5.2802100
-5.2802100
-5.2756300
-5.2756300
-5.2786900
-5.2771600
-5.2756300
-5.2786900
-5.2802100
-5.2786900
-5.2802100
-5.2771600
-5.2786900
-5.2741100
-5.2817400
-5.2771600
-5.2771600
-5.2771600
-5.2786900
-5.2802100
-5.2756300
-5.2802100
-5.2771600
-5.2786900
-5.2741100
-5.2771600
-5.2771600
-5.2756300
-5.2756300
-5.2756300
-5.2786900
-5.2786900
-5.2817400
-5.2802100
-5.2817400
-5.2786900
-5.2817400
-5.2802100
-5.2817400
-5.2786900
-5.2786900
-5.2786900
-5.2756300
-5.2756300
-5.2786900
-5.2802100
-5.2771600
-5.2786900
-5.2771600
-5.2786900
-5.2756300
-5.2786900
-5.2771600
-5.2771600
-5.2786900
-5.2771600
-5.2786900
-5.2771600
-5.2817400
-5.2802100
-5.2771600
-5.2771600
-5.2786900
-5.2741100
-5.2802100
-5.2756300
-5.2786900
-5.2771600
-5.2771600
-5.2771600
-5.2786900
-5.2786900
-5.2786900
-5.2771600
-5.2771600
-5.2756300
-5.2771600
-5.2771600
-5.2771600
-5.2756300
-5.2756300
-5.2756300
-5.2771600
-5.2741100
-5.2756300
-5.2756300
-5.2771600
-5.2802100
-5.2802100
-5.2741100
-5.2802100
-5.2741100
-5.2741100
-5.2756300
-5.2756300
-5.2786900
-5.2741100
-5.2771600
-5.2756300
-5.2786900
-5.2756300
-5.2741100
-5.2741100
-5.2756300
-5.2786900
-5.2756300
-5.2741100
-5.2741100
-5.2756300
-5.2741100
-5.2771600
-5.2756300
-5.2741100
-5.2680100
-5.2786900
-5.2771600
-5.2771600
-5.2741100
-5.2771600
-5.2756300
-5.2756300
-5.2756300
-5.2741100
-5.2771600
-5.2756300
-5.2725800
-5.2756300
-5.2771600
-5.2771600
-5.2756300
-5.2802100
-5.2786900
-5.2817400
-5.2756300
-5.2756300
-5.2741100
-5.2786900
-5.2771600
-5.2802100
-5.2725800
-5.2741100
-5.2741100
-5.2741100
-5.2725800
-5.2725800
-5.2756300
-5.2695300
-5.2741100
-5.2725800
-5.2756300
-5.2725800
-5.2741100
-5.2725800
-5.2725800
-5.2756300
-5.2725800
-5.2695300
-5.2695300
-5.2741100
-5.2664800
-5.2725800
-5.2680100
-5.2695300
-5.2680100
-5.2741100
-5.2725800
-5.2725800
-5.2741100
-5.2695300
-5.2725800
-5.2680100
-5.2725800
-5.2741100
-5.2741100
-5.2741100
-5.2756300
-5.2756300
-5.2786900
-5.2771600
-5.2756300
-5.2741100
-5.2771600
-5.2741100
-5.2771600
-5.2771600
-5.2725800
-5.2725800
-5.2741100
-5.2756300
-5.2725800
-5.2725800
-5.2695300
-5.2725800
-5.2741100
-5.2756300
-5.2725800
-5.2741100
-5.2741100
-5.2741100
-5.2786900
-5.2741100
-5.2771600
-5.2695300
-5.2771600
-5.2741100
-5.2756300
-5.2725800
-5.2695300
-5.2695300
-5.2695300
-5.2725800
-5.2695300
-5.2680100
-10.6328688
-10.6393544
-10.6487032
-10.6460673
-10.6427281
-10.6418520
-10.6383974
-10.6328742
-10.6421220
-10.6391852
-10.6257047
-10.6298791
-10.6301780
-10.6325490
-10.6340802
-10.6346243
-10.6361437
-10.6330436
-10.6326028
-10.6349605
-10.6375706
-10.6277358
-10.6258271
-10.6369803
-10.6385108
-10.6367809
-10.6350978
-10.6351782
-10.6352911
-10.6303264
-10.6307333
-10.6375550
-10.6335751
-10.6340520
-10.6301734
-10.6250059
-10.6377707
-10.6301758
-10.6301988
-10.6381403
-10.6322307
-10.6336561
-10.6366034
-10.6430131
-10.6403329
-10.6378623
-10.6336037
-10.6335611
-10.6341907
-10.6278353
-10.6342957
-10.6350558
-10.6379327
-10.6325560
-10.6396355
-10.6411153
-10.6303009
-10.6405053
-10.6337384
-10.6364055
-10.6331571
-10.6350001
-10.6364294
-10.6271619
-10.6377210
-10.6344844
-10.6349058
-10.6323586
-10.6370806
-10.6355314
-10.6314146
-10.6404903
-10.6347467
-10.6335927
-10.6327870
-10.6380404
-10.6334153
-10.6266742
-10.6292954
-10.6338151
-10.6386011
-10.6330449
-10.6293257
-10.6296898
-10.6270851
-10.6319362
-10.6444721
-10.6303859
-10.6295792
-10.6396963
-10.6359425
-10.6362118
-10.6341722
-10.6373309
-10.6300434
-10.6300941
-10.6428237
-10.6416748
-10.6334813
-10.6322346
-10.6399550
-10.6396695
-10.6342962
-10.6346664
-10.6334507
-10.6405417
-10.6381776
-10.6327125
-10.6367856
-10.6329099
-10.6361863
-10.6316179
-10.6320363
-10.6368917
-10.6315391
-10.6386661
-10.6359145
-10.6303984
-10.6321712
-10.6287858
-10.6363176
-10.6336169
-10.6293156
-10.6336962
-10.6356842
-10.6392192
-10.6316140
-10.6372187
-10.6367467
-10.6293842
-10.6326324
-10.6328950
-10.6344310
-10.6350672
-10.6357788
-10.6316764
-10.6333070
-10.6295600
-10.6347187
-10.6345659
-10.6322850
-10.6439365
-10.6317821
-10.6311188
-10.6317655
-10.6342819
-10.6370988
-10.6349280
-10.6447525
-10.6355219
-10.6362016
-10.6432270
-10.6425084
-10.6388480
-10.6321856
-10.6337037
-10.6331098
-10.6310248
-10.6375287
-10.6416687
-10.6270427
-10.6321886
-10.6383985
-10.6287646
-10.6332292
-10.6301266
-10.6318051
-10.6360386
-10.6288696
-10.6254216
-10.6348358
-10.6404470
-10.6325535
-10.6263428
-10.6216294
-10.6338613
-10.6427604
-10.6363458
-10.6397121
-10.6402027
-10.6351701
-10.6347239
-10.6403569
-10.6379656
-10.6340437
-10.6455143
-10.6434559
-10.6421700
-10.6414756
-10.6338119
-10.6449399
-10.6390948
-10.6339627
-10.6389334
-10.6356842
-10.6346814
-10.6300718
-10.6315873
-10.6371493
-10.6365511
-10.6284692
-10.6335504
-10.6392206
-10.6363825
-10.6328252
-10.6365529
-10.6443896
-10.6371204
-10.6335135
-10.6340092
-10.6365910
-10.6337075
-10.6339194
-10.6354268
-10.6294332
-10.6333492
-10.6312573
-10.6294127
-10.6341692
-10.6291359
-10.6303038
-10.6348402
-10.6339008
-10.6355538
-10.6362278
-10.6401773
-10.6406552
-10.6346793
-10.6277375
-10.6341586
-10.6382925
-10.6380428
-10.6399847
-10.6357014
-10.6368452
-10.6378118
-10.6397070
-10.6400891
-10.6389138
-10.6317368
-10.6336513
-10.6392690
-10.6368324
-10.6336885
-10.6359795
-10.6339542
-10.6320312
-10.6376128
-10.6289314
-10.6367607
-10.6397544
-10.6391195
-10.6410357
-10.6348279
-10.6375726
-10.6345740
-10.6355017
-10.6342965
-10.6411243
-10.6397499
-10.6283570
-10.6389319
-10.6353974
-10.6264484
-10.6363441
-10.6293122
-10.6208880
-10.6329675
-10.6358792
-10.6356221
-10.6328184
-10.6312891
-10.6424277
-10.6385113
-10.6311742
-10.6308828
-10.6327790
-10.6365515
-10.6358327
-10.6339747
-10.6323292
-10.6363852
-10.6340431
-10.6341494
-10.6382205
-10.6365694
-10.6382488
-10.6385564
-10.6363568
-10.6310369
-10.6303319
-10.6346012
-10.6313246
-10.6287670
-10.6312773
-10.6341490
-10.6353594
-10.6321053
-10.6382275
-10.6345986
-10.6262592
-10.6374513
-10.6348438
-10.6320324
-10.6379884
-10.6377434
-10.6370581
-10.6345237
-10.6401527
-10.6364077
-10.6324537
-10.6340562
-10.6303394
-10.6389232
-10.6358144
-10.6333889
-10.6356024
-10.6353789
-10.6433791
-10.6362229
-10.6340602
-10.6373801
-10.6325115
-10.6336154
-10.6398823
-10.6365547
-10.6334273
-10.6360735
-10.6311888
-10.6396709
-10.6383258
-10.6281227
-10.6348739
-10.6346509
-10.6330168
-10.6335499
-10.6330893
-10.6304562
-10.6249152
-10.6300105
-10.6372559
-10.6345328
-10.6297808
-10.6305669
-10.6344091
-10.6313128
-10.6336685
-10.6395810
-10.6374247
-10.6374539
-10.6363918
-10.6397797
-10.6392925
-10.6355705
-10.6328690
-10.6314486
-10.6367721
-10.6310333
-10.6321591
-10.6374938
-10.6330531
-10.6323645
-10.6268853
-10.6249571
-10.6302946
-10.6331730
-10.6345702
-10.6342248
-10.6363410
-10.6380070
-10.6353609
-10.6329195
-10.6302248
-10.6290646
-10.6357276
-10.6406172
-10.6386496
-10.6317051
-10.6322775
-10.6365413
-10.6320816
-10.6365433
-10.6363510
-10.6328386
-10.6320131
-10.6370938
-10.6445191
-10.6410179
-10.6340269
-10.6279149
-10.6361817
-10.6360912
-10.6378726
-10.6292801
-10.6246336
-10.6436263
-10.6366042
-10.6363805
-10.6387779
-10.6370926
-10.6379803
-10.6333471
-10.6358269
-10.6363387
-10.6358243
-10.6312592
-10.6301507
-10.6373379
-10.6388090
-10.6355844
-10.6369028
-10.6351629
-10.6331541
-10.6393228
-10.6364268
-10.6342463
-10.6372880
-10.6272795
-10.6301886
-10.6351366
-10.6320228
-10.6375720
-10.6344135
-10.6310224
-10.6338130
-10.6346812
-10.6354717
-10.6365254
-10.6353737
-10.6373682
-10.6418067
-10.6371849
-10.6293683
-10.6358463
-10.6423159
-10.6340994
-10.6347289
-10.6360087
-10.6324846
-10.6293531
-10.6272527
-10.6391913
-10.6394016
-10.6345452
-10.6369963
-10.6364385
-10.6357003
-10.6305746
-10.6330242
-10.6348137
-10.6334473
-10.6359701
-10.6331836
-10.6329644
-10.6367140
-10.6355203
-10.6373058
-10.6351787
-10.6305784
-10.6345419
-10.6347657
-10.6330261
-10.6339659
-10.6322094
-10.6326106
-10.6395334
-10.6345624
-10.6384134
-10.6393064
-10.6215871
-10.6313426
-10.6377923
-10.6359181
-10.6402870
-10.6399516
-10.6403881
-10.6313668
-10.6305622
-10.6328507
-10.6325622
-10.6326539
-10.6317434
-10.6406633
-10.6392869
-10.6379303
-10.6348079
-10.6334957
-10.6443761
-10.6348997
-10.6307643
-10.6341415
-10.6344737
-10.6380796
-10.6336340
-10.6307334
-10.6340558
-10.6390507
-10.6316524
-10.6285618
-10.6301260
-10.6287145
-10.6309562
-10.6337845
-10.6382163
-10.6312766
-10.6341698
-10.6373113
-10.6299885
-10.6354448
-10.6320234
-10.6328926
-10.6357966
-10.6223450
-10.6311695
-10.6398573
-10.6356311
-10.6385998
-10.6340875
-10.6378629
-10.6341859
-10.6327334
-10.6381745
-10.6338981
-10.6406241
-10.6412435
-10.6394648
-10.6371939
-10.6374243
-10.6326238
-10.6309082
-10.6369585
-10.6294765
-10.6370481
-10.6400915
-10.6314691
-10.6392470
-10.6430635
-10.6342169
-10.6352636
-10.6394072
-10.6362347
-10.6352654
-10.6382545
-10.6379887
-10.6323053
-10.6369083
-10.6396186
-10.6314022
-10.6342859
-10.6375156
-10.6273713
-10.6303663
-10.6361881
-10.6343848
-10.6362467
-10.6316239
-10.6334823
-10.6406736
-10.6383151
-10.6339604
-10.6353668
-10.6365907
-10.6360389
-10.6368478
-10.6388685
-10.6334474
-10.6302025
-10.6327510
-10.6331477
-10.6410633
-10.6339307
-10.6328967
-10.6375246
-10.6297076
-10.6289345
-10.6323426
-10.6405282
-10.6301576
-10.6298123
-10.6319754
-10.6279185
-10.6448219
-10.6428050
-10.6364635
-10.6326529
-10.6355136
-10.6425266
-10.6380765
-10.6350256
-10.6339522
-10.6339682
-10.6280345
-10.6311128
-10.6276937
-10.6266210
-10.6366589
-10.6376256
-10.6370583
-10.6343592
-10.6353504
-10.6315263
-10.6356640
-10.6431510
-10.6378104
-10.6362540
-10.6349388
-10.6348283
-10.6411155
-10.6416786
-10.6349880
-10.6339504
-10.6335218
-10.6319604
-10.6299133
-10.6326346
-10.6406629
-10.6275815
-10.6271480
-10.6424118
-10.6313277
-10.6277407
-10.6334296
-10.6364844
-10.6350681
-10.6347546
-10.6404834
-10.6340664
-10.6348872
-10.6325592
-10.6291368
-10.6358704
-10.6383525
-10.6354040
-10.6315197
-10.6336298
-10.6368782
-10.6391260
-10.6355512
-10.6352513
-10.6306029
-10.6323504
-10.6379040
-10.6299628
-10.6291576
-10.6289041
-10.6354212
-10.6375847
-10.6393147
-10.6391900
-10.6339677
-10.6383168
-10.6296208
-10.6360461
-10.6408905
-10.6357586
-10.6397859
-10.6263985
-10.6290656
-10.6329364
-10.6241961
-10.6350123
-10.6373348
-10.6324215
-10.6327477
-10.6340587
-10.6406107
-10.6351091
-10.6302921
-10.6357193
-10.6321215
-10.6334084
-10.6407429
-10.6358712
-10.6326046
-10.6365766
-10.6385345
-10.6388496
-10.6343199
-10.6339557
-10.6337545
-10.6375527
-10.6435606
-10.6322081
-10.6282228
-10.6332531
-10.6347704
-10.6393066
-10.6373635
-10.6310742
-10.6328471
-10.6349309
-10.6390250
-10.6417370
-10.6389188
-10.6372977
-10.6306412
-10.6256873
-10.6231810
-10.6320411
-10.6314524
-10.6297206
-10.6422697
-10.6331978
-10.6374522
-10.6388430
-10.6325771
-10.6416016
-10.6256074
-10.6293239
-10.6372002
-10.6312863
-10.6357557
-10.6200049
-10.6331041
-10.6444954
-10.6340902
-10.6336009
-10.6300313
-10.6400152
-10.6333344
-10.6342673
-10.6406543
-10.6381278
-10.6455538
-10.6347939
-10.6379283
-10.6376436
-10.6275053
-10.6331372
-10.6298627
-10.6365473
-10.6351054
-10.6327962
-10.6392045
-10.6351362
-10.6395912
-10.6310563
-10.6337743
-10.6343643
-10.6235282
-10.6415028
-10.6376858
-10.6287643
-10.6330120
-10.6314595
-10.6369743
-10.6368814
-10.6373224
-10.6341513
-10.6323451
-10.6320882
-10.6317733
-10.6331566
-10.6309306
-10.6383595
-10.6340311
-10.6312868
-10.6339971
-10.6287902
-10.6327620
-10.6371151
-10.6342515
-10.6240020
-10.6315017
-10.6419226
-10.6354623
-10.6360441
-10.6399861
-10.6375854
-10.6315700
-10.6361136
-10.6402564
-10.6437429
-10.6407493
-10.6376444
-10.6395082
-10.6354061
-10.6372007
-10.6323627
-10.6397810
-10.6380120
-10.6340081
-10.6382082
-10.6303264
-10.6378179
-10.6356046
-10.6329145
-10.6431401
-10.6383931
-10.6303291
-10.6372330
-10.6339123
-10.6284046
-10.6338221
-10.6320520
-10.6329645
-10.6326304
-10.6304380
-10.6294926
-10.6365602
-10.6375806
-10.6312430
-10.6405660
-10.6416679
-10.6388390
-10.6334551
-10.6247562
-10.6357601
-10.6336093
-10.6253127
-10.6387087
-10.6407697
-10.6321610
-10.6378583
-10.6368980
-10.6364683
-10.6396374
-10.6324544
-10.6407458
-10.6325170
-10.6284479
-10.6399312
-10.6338383
-10.6418456
-10.6427631
-10.6380755
-10.6335631
-10.6331828
-10.6384776
-10.6279033
-10.6331172
-10.6420998
-10.6344304
