-2.22778	
-2.22778	
-2.22626	
-2.22473	
-2.22321	
-2.23236	
-2.24457	
-2.25372	
-2.26135	
-2.25983	
-2.24915	
-2.24915	
-2.2644	
-2.27051	
-2.26746	
-2.26135	
-2.25525	
-2.24915	
-2.24915	
-2.24915	
-2.24609	
-2.25525	
-2.26135	
-2.2583	
-2.25983	
-2.25525	
-2.25677	
-2.26593	
-2.26288	
-2.2583	
-2.25067	
-2.24457	
-2.24457	
-2.25067	
-2.26288	
-2.26288	
-2.26898	
-2.26898	
-2.27661	
-2.28577	
-2.28119	
-2.26593	
-2.27356	
-2.27814	
-2.26746	
-2.25525	
-2.23694	
-2.22626	
-2.22321	
-2.20947	
-2.20642	
-2.2049	
-2.21405	
-2.21252	
-2.21405	
-2.22015	
-2.22626	
-2.22473	
-2.22626	
-2.23083	
-2.23694	
-2.23999	
-2.25372	
-2.27661	
-2.28882	
-2.29797	
-2.30255	
-2.29645	
-2.29187	
-2.27814	
-2.26593	
-2.25525	
-2.25067	
-2.25525	
-2.24609	
-2.23541	
-2.23541	
-2.23389	
-2.22626	
-2.22015	
-2.21863	
-2.22626	
-2.22473	
-2.22321	
-2.21863	
-2.22015	
-2.23083	
-2.24762	
-2.2644	
-2.27509	
-2.28119	
-2.2934	
-2.30255	
-2.31018	
-2.30713	
-2.30255	
-2.29797	
-2.28271	
-2.26898	
-2.24762	
-2.23389	
-2.22626	
-2.21863	
-2.21405	
-2.211	
-2.21863	
-2.22473	
-2.23389	
-2.23846	
-2.23694	
-2.23541	
-2.23389	
-2.23846	
-2.24304	
-2.25677	
-2.26746	
-2.26288	
-2.26746	
-2.28119	
-2.28882	
-2.2934	
-2.29034	
-2.27966	
-2.27356	
-2.27203	
-2.27356	
-2.27051	
-2.2644	
-2.26898	
-2.26746	
-2.27661	
-2.27814	
-2.27509	
-2.26746	
-2.25983	
-2.25983	
-2.25677	
-2.24762	
-2.24762	
-2.24762	
-2.24457	
-2.23236	
-2.22473	
-2.2171	
-2.22626	
-2.23541	
-2.24762	
-2.2583	
-2.25983	
-2.25525	
-2.25372	
-2.25525	
-2.25525	
-2.26135	
-2.26135	
-2.2583	
-2.25067	
-2.24915	
-2.23999	
-2.23236	
-2.22626	
-2.22321	
-2.22473	
-2.23083	
-2.22473	
-2.22321	
-2.23694	
-2.24762	
-2.26593	
-2.27814	
-2.28577	
-2.28577	
-2.28271	
-2.27814	
-2.27509	
-2.26746	
-2.2583	
-2.2644	
-2.26288	
-2.26288	
-2.26288	
-2.26288	
-2.2583	
-2.25067	
-2.25067	
-2.26288	
-2.26593	
-2.2644	
-2.26135	
-2.26135	
-2.26746	
-2.26746	
-2.2644	
-2.2583	
-2.25983	
-2.26135	
-2.27051	
-2.27051	
-2.27509	
-2.2644	
-2.26593	
-2.25677	
-2.25372	
-2.24915	
-2.24152	
-2.23846	
-2.22778	
-2.22321	
-2.22321	
-2.22321	
-2.22015	
-2.22778	
-2.23083	
-2.24152	
-2.24152	
-2.24609	
-2.25372	
-2.26135	
-2.27966	
-2.2934	
-2.31934	
-2.31934	
-2.31171	
-2.30713	
-2.2995	
-2.29034	
-2.27661	
-2.2644	
-2.25372	
-2.24915	
-2.24152	
-2.23999	
-2.23846	
-2.23236	
-2.24304	
-2.23846	
-2.23389	
-2.23236	
-2.24152	
-2.23999	
-2.24304	
-2.25677	
-2.2644	
-2.26135	
-2.25525	
-2.25983	
-2.2644	
-2.26593	
-2.26898	
-2.26288	
-2.25677	
-2.24915	
-2.24152	
-2.23541	
-2.23541	
-2.23999	
-2.24762	
-2.26898	
-2.26746	
-2.26898	
-2.26746	
-2.2644	
-2.2583	
-2.26746	
-2.27203	
-2.27356	
-2.26135	
-2.25525	
-2.25372	
-2.24609	
-2.24152	
-2.24609	
-2.24457	
-2.24915	
-2.24457	
-2.24457	
-2.25372	
-2.25677	
-2.25983	
-2.26135	
-2.27051	
-2.27966	
-2.27814	
-2.27509	
-2.27203	
-2.27356	
-2.27051	
-2.27203	
-2.26288	
-2.25983	
-2.27051	
-2.26288	
-2.26746	
-2.27509	
-2.28271	
-2.29034	
-2.29187	
-2.28882	
-2.28882	
-2.27356	
-2.2644	
-2.26135	
-2.26135	
-2.26288	
-2.2583	
-2.24762	
-2.23846	
-2.22931	
-2.21863	
-2.20642	
-2.19879	
-2.20337	
-2.21252	
-2.21863	
-2.22473	
-2.24152	
-2.2644	
-2.27356	
-2.28119	
-2.28271	
-2.28271	
-2.27814	
-2.27661	
-2.27509	
-2.26898	
-2.25983	
-2.25983	
-2.2644	
-2.26288	
-2.25983	
-2.2583	
-2.25067	
-2.25067	
-2.24304	
-2.24152	
-2.23846	
-2.23999	
-2.23541	
-2.23389	
-2.23846	
-2.24609	
-2.24609	
-2.24304	
-2.24762	
-2.25525	
-2.25525	
-2.24915	
-2.25525	
-2.25983	
-2.26593	
-2.26288	
-2.26135	
-2.26135	
-2.26593	
-2.26593	
-2.27051	
-2.27356	
-2.27203	
-2.26288	
-2.26746	
-2.26593	
-2.26746	
-2.26746	
-2.27051	
-2.27051	
-2.27356	
-2.27356	
-2.27051	
-2.27051	
-2.26593	
-2.2644	
-2.26746	
-2.27203	
-2.26593	
-2.27356	
-2.29645	
-2.29797	
-2.30103	
-2.30255	
-2.30255	
-2.2934	
-2.28271	
-2.26593	
-2.25372	
-2.23846	
-2.21863	
-2.20642	
-2.18506	
-2.18048	
-2.18506	
-2.20337	
-2.211	
-2.22321	
-2.22626	
-2.22778	
-2.22931	
-2.24152	
-2.23999	
-2.24762	
-2.24609	
-2.24762	
-2.2583	
-2.25525	
-2.25983	
-2.2644	
-2.27509	
-2.28882	
-2.2995	
-2.29034	
-2.28882	
-2.28577	
-2.28729	
-2.28882	
-2.28119	
-2.27203	
-2.26898	
-2.2644	
-2.25525	
-2.24915	
-2.24304	
-2.23999	
-2.22931	
-2.22931	
-2.23694	
-2.23236	
-2.24762	
-2.25525	
-2.2644	
-2.27661	
-2.2934	
-2.32697	
-2.33765	
-2.33154	
-2.32391	
-2.31323	
-2.30255	
-2.2934	
-2.28271	
-2.27509	
-2.27661	
-2.27509	
-2.2644	
-2.24762	
-2.23846	
-2.23389	
-2.21863	
-2.21558	
-2.21252	
-2.21252	
-2.21252	
-2.2171	
-2.21405	
-2.23083	
-2.24304	
-2.24457	
-2.24457	
-2.24609	
-2.26135	
-2.25983	
-2.26135	
-2.26135	
-2.26593	
-2.26288	
-2.26135	
-2.25525	
-2.27814	
-2.28271	
-2.31018	
-2.31934	
-2.32544	
-2.32391	
-2.31323	
-2.30713	
-2.29797	
-2.27966	
-2.26135	
-2.24304	
-2.22015	
-2.20795	
-2.2049	
-2.20795	
-2.23236	
-2.24304	
-2.25067	
-2.25525	
-2.27814	
-2.29797	
-2.3056	
-2.31018	
-2.30865	
-2.31934	
-2.31171	
-2.30103	
-2.2934	
-2.27814	
-2.26746	
-2.24762	
-2.22778	
-2.21863	
-2.22015	
-2.20795	
-2.20642	
-2.20947	
-2.211	
-2.2171	
-2.21863	
-2.22473	
-2.23389	
-2.23389	
-2.24457	
-2.24457	
-2.23999	
-2.24457	
-2.24609	
-2.24152	
-2.23694	
-2.23236	
-2.22931	
-2.23236	
-2.25067	
-2.2644	
-2.28577	
-2.31323	
-2.32697	
-2.32697	
-2.32544	
-2.31171	
-2.2995	
-2.29187	
-2.30103	
-2.2934	
-2.2934	
-2.27966	
-2.27509	
-2.27509	
-2.27661	
-2.28119	
-2.28729	
-2.28577	
-2.27966	
-2.27051	
-2.25067	
-2.23999	
-2.23236	
-2.21863	
-2.20947	
-2.20337	
-2.20642	
-2.21252	
-2.23236	
-2.2583	
-2.26135	
-2.26593	
-2.27051	
-2.27509	
-2.27509	
-2.27814	
-2.27661	
-2.26746	
-2.25677	
-2.23694	
-2.22015	
-2.21252	
-2.20947	
-2.21252	
-2.22931	
-2.23541	
-2.24609	
-2.26135	
-2.27203	
-2.27356	
-2.27509	
-2.27661	
-2.27661	
-2.28729	
-2.28729	
-2.28119	
-2.27509	
-2.26746	
-2.25983	
-2.25067	
-2.24304	
-2.23083	
-2.23083	
-2.23846	
-2.24152	
-2.24609	
-2.24609	
-2.24457	
-2.25067	
-2.25677	
-2.25067	
-2.25372	
-2.25983	
-2.26135	
-2.25983	
-2.26135	
-2.26746	
-2.26746	
-2.26746	
-2.27051	
-2.26898	
-2.26288	
-2.2644	
-2.26288	
-2.26288	
-2.27203	
-2.27814	
-2.28119	
-2.28729	
-2.2995	
-2.30408	
-2.30103	
-2.2995	
-2.29034	
-2.28729	
-2.27814	
-2.27814	
-2.28577	
-2.27814	
-2.27203	
-2.27356	
-2.29187	
-2.29187	
-2.29187	
-2.28882	
-2.27966	
-2.26898	
-2.24915	
-2.24152	
-2.24457	
-2.24915	
-2.24152	
-2.22931	
-2.22626	
-2.23083	
-2.23083	
-2.23083	
-2.23999	
-2.23999	
-2.24915	
-2.26288	
-2.27051	
-2.26746	
-2.27509	
-2.27509	
-2.27661	
-2.27203	
-2.27661	
-2.28271	
-2.28577	
-2.28119	
-2.27661	
-2.28729	
-2.28729	
-2.28119	
-2.27203	
-2.27356	
-2.26593	
-2.25525	
-2.24152	
-2.24152	
-2.24304	
-2.23694	
-2.23694	
-2.23846	
-2.22931	
-2.22015	
-2.2171	
-2.21252	
-2.2171	
-2.21863	
-2.22626	
-2.22931	
-2.23541	
-2.25372	
-2.27051	
-2.28729	
-2.30408	
-2.30865	
-2.31781	
-2.32086	
-2.31781	
-2.31018	
-2.2934	
-2.27509	
-2.25525	
-2.23236	
-2.23083	
-2.22931	
-2.23541	
-2.23694	
-2.24152	
-2.24609	
-2.24915	
-2.24609	
-2.25677	
-2.25677	
-2.26135	
-2.2644	
-2.26593	
-2.26746	
-2.26593	
-2.27661	
-2.28577	
-2.28729	
-2.29034	
-2.2934	
-2.29034	
-2.2934	
-2.29492	
-2.29034	
-2.28577	
-2.28119	
-2.26288	
-2.25525	
-2.24304	
-2.24304	
-2.25372	
-2.25525	
-2.27051	
-2.28729	
-2.30103	
-2.3056	
-2.30255	
-2.29645	
-2.28577	
-2.26746	
-2.24304	
-2.22931	
-2.21252	
-2.211	
-2.20184	
-2.19116	
-2.19116	
-2.19269	
-2.19727	
-2.20032	
-2.20642	
-2.20947	
-2.22321	
-2.23083	
-2.25067	
-2.25677	
-2.26288	
-2.2644	
-2.27203	
-2.26746	
-2.27051	
-2.26288	
-2.2583	
-2.25677	
-2.25983	
-2.2644	
-2.25983	
-2.2583	
-2.25067	
-2.25372	
-2.24152	
-2.24609	
-2.24609	
-2.24609	
-2.25067	
-2.25677	
-2.25677	
-2.26135	
-2.2583	
-2.25983	
-2.26746	
-2.26746	
-2.26593	
-2.27051	
-2.27203	
-2.27661	
-2.29645	
-2.32391	
-2.32697	
-2.31781	
-2.30713	
-2.30408	
-2.31781	
-2.33307	
-2.33002	
-2.33002	
-2.32849	
-2.32849	
-2.31781	
-2.30255	
-2.28882	
-2.26898	
-2.24152	
-2.23083	
-2.21863	
-2.18811	
-2.18353	
-2.18048	
-2.17438	
-2.17896	
-2.18811	
-2.20184	
-2.20947	
-2.21405	
-2.21558	
-2.22626	
-2.24457	
-2.26593	
-2.27356	
-2.27966	
-2.2995	
-2.30713	
-2.30713	
-2.30408	
-2.30408	
-2.3056	
-2.30255	
-2.29797	
-2.28271	
-2.27356	
-2.26288	
-2.25525	
-2.23999	
-2.23389	
-2.22473	
-2.2171	
-2.2171	
-2.21863	
-2.21863	
-2.21405	
-2.21252	
-2.21558	
-2.21863	
-2.23083	
-2.22778	
-2.22931	
-2.23541	
-2.23999	
-2.24762	
-2.2583	
-2.25983	
-2.25525	
-2.2583	
-2.26288	
-2.2644	
-2.26288	
-2.26898	
-2.26898	
-2.27051	
-2.27203	
-2.27203	
-2.26898	
-2.2644	
-2.2644	
-2.2583	
-2.26288	
-2.27051	
-2.27509	
-2.27661	
-2.28577	
-2.28577	
-2.28577	
-2.28119	
-2.27814	
-2.27356	
-2.27203	
-2.28271	
-2.30103	
-2.31323	
-2.31323	
-2.30408	
-2.2995	
-2.2934	
-2.27814	
-2.28271	
-2.27661	
-2.27203	
-2.25983	
-2.24609	
-2.24152	
-2.23389	
-2.22626	
-2.22321	
-2.23846	
-2.23541	
-2.23999	
-2.23846	
-2.24609	
-2.25983	
-2.27966	
-2.30408	
-2.2995	
-2.29492	
-2.28577	
-2.27814	
-2.27661	
-2.27356	
-2.2644	
-2.25067	
-2.23999	
-2.23541	
-2.22321	
-2.21405	
-2.21558	
-2.211	
-2.21405	
-2.2171	
-2.2171	
-2.22473	
-2.23389	
-2.24457	
-2.25067	
-2.25677	
-2.2644	
-2.27051	
-2.27661	
-2.27966	
-2.28729	
-2.28729	
-2.27966	
-2.28119	
-2.28271	
-2.28577	
-2.27814	
-2.28882	
-2.29797	
-2.2995	
-2.31934	
-2.33459	
-2.33459	
-2.32391	
-2.30408	
-2.2934	
-2.28882	
-2.26898	
-2.25983	
-2.25525	
-2.23389	
-2.22015	
-2.20642	
-2.2049	
-2.20184	
-2.21405	
-2.22015	
-2.23236	
-2.24152	
-2.24915	
-2.26135	
-2.27356	
-2.27203	
-2.27509	
-2.27509	
-2.27051	
-2.27509	
-2.27966	
-2.27814	
-2.27203	
-2.27051	
-2.27203	
-2.27203	
-2.25983	
-2.26288	
-2.26288	
-2.24915	
-2.25372	
-2.24457	
-2.24304	
-2.24457	
-2.24304	
-2.24457	
-2.25983	
-2.26593	
-2.27203	
-2.26593	
-2.27356	
-2.27814	
-2.27814	
-2.27509	
-2.27051	
-2.26746	
-2.25983	
-2.2583	
-2.2644	
-2.27661	
-2.28577	
-2.28729	
-2.29187	
-2.29034	
-2.28729	
-2.28271	
-2.27661	
-2.27051	
-2.27051	
-2.26746	
-2.2644	
-2.25525	
-2.25067	
-2.2583	
-2.26898	
-2.26898	
-2.27661	
-2.28119	
-2.27203	
-2.26593	
-2.2583	
-2.26898	
-2.27051	
-2.26746	
-2.2644	
-2.25372	
-2.24457	
-2.24457	
-2.24762	
-2.24762	
-2.24457	
-2.23694	
-2.22321	
-2.21405	
-2.21252	
-2.22778	
-2.23846	
-2.25372	
-2.27203	
-2.27814	
-2.28729	
-2.30103	
-2.30408	
-2.30713	
-2.30865	
-2.30713	
-2.29492	
-2.28882	
-2.28119	
-2.28271	
-2.27966	
-2.27966	
-2.27509	
-2.25983	
-2.24762	
-2.23694	
-2.23236	
-2.23236	
-2.23694	
-2.23999	
-2.24762	
-2.25525	
-2.25983	
-2.2644	
-2.26746	
-2.26746	
-2.26898	
-2.26746	
-2.27814	
-2.28271	
-2.27661	
-2.27051	
-2.26135	
-2.24762	
-2.25525	
-2.25677	
-2.26135	
-2.25983	
-2.25983	
-2.25983	
-2.26746	
-2.27509	
-2.27814	
-2.27356	
-2.27051	
-2.27051	
-2.27051	
-2.26898	
-2.26898	
-2.27051	
-2.27203	
-2.26898	
-2.27509	
-2.27356	
-2.26898	
-2.25983	
-2.25677	
-2.26288	
-2.25983	
-2.26135	
-2.24609	
-2.24762	
-2.25525	
-2.26135	
-2.26288	
-2.26288	
-2.26898	
-2.26898	
-2.26593	
-2.26135	
-2.2583	
-2.24915	
-2.24762	
-2.25372	
-2.26288	
-2.28119	
-2.2934	
-2.2934	
-2.28577	
-2.28119	
-2.28271	
-2.29797	
-2.30103	
-2.29645	
-2.30255	
-2.30255	
-2.29492	
-2.28577	
-2.27203	
-2.26288	
-2.25677	
-2.23999	
-2.23541	
-2.24304	
-2.24457	
-2.24762	
-2.24304	
-2.23846	
-2.23236	
-2.23236	
-2.23389	
-2.23694	
-2.23999	
-2.24457	
-2.24609	
-2.26593	
-2.27509	
-2.27661	
-2.27356	
-2.27356	
-2.26746	
-2.26135	
-2.26593	
-2.27661	
-2.29797	
-2.30103	
-2.30408	
-2.30713	
-2.30408	
-2.29797	
-2.30103	
-2.2934	
-2.29034	
-2.27966	
-2.26898	
-2.2644	
-2.25983	
-2.24915	
-2.24457	
-2.23999	
-2.23236	
-2.23694	
-2.23846	
-2.23083	
-2.22778	
-2.22473	
-2.21863	
-2.22321	
-2.23236	
-2.24304	
-2.25677	
-2.26135	
-2.26135	
-2.2644	
-2.26288	
-2.26746	
-2.27203	
-2.27509	
-2.27356	
-2.27814	
-2.29034	
-2.29492	
-2.29645	
-2.3056	
-2.30255	
-2.30103	
-2.29187	
-2.28882	
-2.27814	
-2.27814	
-2.26746	
-2.26746	
-2.2644	
-2.24915	
-2.24457	
-2.24152	
-2.24457	
-2.24609	
-2.25067	
-2.25067	
-2.25677	
-2.25677	
-2.25372	
-2.24762	
-2.24304	
-2.24152	
-2.23999	
-2.24304	
-2.23694	
-2.23541	
-2.23541	
-2.24304	
-2.24457	
-2.25372	
-2.25983	
-2.27356	
-2.29187	
-2.2995	
-2.30408	
-2.32239	
-2.32391	
-2.31781	
-2.31018	
-2.30103	
-2.2934	
-2.28119	
-2.27509	
-2.28577	
-2.29187	
-2.28577	
-2.27356	
-2.26593	
-2.2583	
-2.25372	
-2.23999	
-2.23999	
-2.22931	
-2.22626	
-2.21863	
-2.21405	
-2.20795	
-2.211	
-2.21405	
-2.22015	
-2.2171	
-2.22473	
-2.23389	
-2.23541	
-2.24609	
-2.25983	
-2.27051	
-2.27203	
-2.27966	
-2.29797	
-2.2995	
-2.2995	
-2.3056	
-2.30255	
-2.2934	
-2.2934	
-2.27814	
-2.26898	
-2.26135	
-2.25677	
-2.25067	
-2.24457	
-2.23694	
-2.23541	
-2.22931	
-2.22626	
-2.23389	
-2.24457	
-2.26593	
-2.27661	
-2.28882	
-2.2934	
-2.29645	
-2.28882	
-2.27966	
-2.27203	
-2.2644	
-2.2583	
-2.24915	
-2.25067	
-2.24304	
-2.23541	
-2.23083	
-2.23541	
-2.23846	
-2.25067	
-2.25067	
-2.25372	
-2.25372	
-2.25067	
-2.25677	
-2.26135	
-2.26898	
-2.27203	
-2.27203	
-2.2644	
-2.2644	
-2.2644	
-2.25983	
-2.25677	
-2.26288	
-2.26898	
-2.28882	
-2.30103	
-2.31323	
-2.33154	
-2.34985	
-2.36664	
-2.36359	
-2.35138	
-2.33154	
-2.30865	
-2.2934	
-2.27661	
-2.25677	
-2.23694	
-2.21405	
-2.20032	
-2.19574	
-2.19269	
-2.20032	
-2.20184	
-2.20337	
-2.20032	
-2.20184	
-2.20184	
-2.20947	
-2.21558	
-2.23389	
-2.25525	
-2.27203	
-2.28271	
-2.29645	
-2.29797	
-2.2995	
-2.3056	
-2.29645	
-2.2934	
-2.29187	
-2.28577	
-2.28119	
-2.27203	
-2.27051	
-2.26288	
-2.26898	
-2.24915	
-2.23541	
-2.22473	
-2.22626	
-2.22473	
-2.22931	
-2.22778	
-2.22321	
-2.23083	
-2.23389	
-2.23846	
-2.23999	
-2.24609	
-2.25677	
-2.26746	
-2.27966	
-2.28271	
-2.28119	
-2.2934	
-2.30408	
-2.31018	
-2.30408	
-2.3056	
-2.30408	
-2.2934	
-2.28271	
-2.27356	
-2.26288	
-2.26898	
-2.28271	
-2.28882	
-2.28271	
-2.2934	
-2.29492	
-2.30103	
-2.2995	
-2.2934	
-2.2934	
-2.29187	
-2.2934	
-2.29187	
-2.28119	
-2.27203	
-2.26593	
-2.26135	
-2.25525	
-2.24762	
-2.26288	
-2.2583	
-2.27509	
-2.27966	
-2.27356	
-2.25983	
-2.2583	
-2.26288	
-2.2583	
-2.25372	
-2.25525	
-2.24609	
-2.23694	
-2.23694	
-2.24762	
-2.2583	
-2.25525	
-2.25525	
-2.26135	
-2.2583	
-2.25677	
-2.25372	
-2.2583	
-2.26288	
-2.2644	
-2.25525	
-2.25067	
-2.24152	
-2.23236	
-2.22778	
-2.23236	
-2.23083	
-2.23389	
-2.23236	
-2.23541	
-2.24762	
-2.25525	
-2.27203	
-2.27203	
-2.27203	
-2.2644	
-2.26746	
-2.27661	
-2.29187	
-2.29645	
-2.3056	
-2.31171	
-2.30713	
-2.29645	
-2.29492	
-2.28729	
-2.27814	
-2.27661	
-2.27203	
-2.26288	
-2.24609	
-2.23999	
-2.24304	
-2.25067	
-2.2644	
-2.27356	
-2.27051	
-2.26135	
-2.2644	
-2.26135	
-2.27051	
-2.2644	
-2.25677	
-2.26135	
-2.26135	
-2.2644	
-2.26898	
-2.2644	
-2.26593	
-2.25983	
-2.25067	
-2.25372	
-2.24609	
-2.24762	
-2.25677	
-2.26135	
-2.26135	
-2.27814	
-2.27966	
-2.27661	
-2.27509	
-2.2644	
-2.27203	
-2.26746	
-2.27051	
-2.27356	
-2.27051	
-2.26746	
-2.2644	
-2.2583	
-2.26898	
-2.27203	
-2.26898	
-2.27051	
-2.27203	
-2.27356	
-2.27051	
-2.27356	
-2.26593	
-2.27203	
-2.26898	
-2.2583	
-2.24457	
-2.23846	
-2.23846	
-2.24304	
-2.24457	
-2.2583	
-2.26288	
-2.27051	
-2.29492	
-2.32391	
-2.34222	
-2.36053	
-2.36816	
-2.36053	
-2.35138	
-2.32697	
-2.30255	
-2.27966	
-2.2583	
-2.24609	
-2.23694	
-2.22015	
-2.21252	
-2.20795	
-2.19727	
-2.19727	
-2.211	
-2.22321	
-2.25067	
-2.26288	
-2.28271	
-2.2934	
-2.29492	
-2.29187	
-2.28271	
-2.27966	
-2.27814	
-2.26593	
-2.26135	
-2.25677	
-2.24915	
-2.24915	
-2.25372	
-2.24304	
-2.23999	
-2.24152	
-2.23999	
-2.23694	
-2.22931	
-2.23083	
-2.24152	
-2.24152	
-2.23694	
-2.23999	
-2.24457	
-2.24762	
-2.25372	
-2.25372	
-2.25525	
-2.25983	
-2.26288	
-2.2644	
-2.26593	
-2.26746	
-2.26135	
-2.2644	
-2.27203	
-2.28271	
-2.28729	
-2.2934	
-2.30103	
-2.3056	
-2.31171	
-2.32086	
-2.31018	
-2.3056	
-2.30103	
-2.28882	
-2.27661	
-2.2583	
-2.25067	
-2.24609	
-2.24457	
-2.24915	
-2.26288	
-2.26746	
-2.27051	
-2.28577	
-2.29797	
-2.29797	
-2.29645	
-2.2995	
-2.28882	
-2.27509	
-2.26288	
-2.24915	
-2.24457	
-2.23846	
-2.22931	
-2.22321	
-2.21863	
-2.21558	
-2.23083	
-2.22931	
-2.22626	
-2.23236	
-2.24304	
-2.24609	
-2.24762	
-2.25525	
-2.28119	
-2.29492	
-2.30408	
-2.29492	
-2.28577	
-2.27509	
-2.26746	
-2.26288	
-2.27203	
-2.27966	
-2.27509	
-2.27661	
-2.27814	
-2.27356	
-2.27051	
-2.26898	
-2.27051	
-2.27203	
-2.2644	
-2.25983	
-2.25983	
-2.26288	
-2.27356	
-2.29034	
-2.29797	
-2.30255	
-2.31323	
-2.31018	
-2.30713	
-2.29492	
-2.29187	
-2.29034	
-2.29034	
-2.27661	
-2.26746	
-2.25067	
-2.24457	
-2.26898	
-2.28882	
-2.28882	
-2.27509	
-2.27203	
-2.26593	
-2.26746	
-2.26746	
-2.25983	
-2.2583	
-2.24762	
-2.24304	
-2.24304	
-2.24152	
-2.24762	
-2.24915	
-2.26593	
-2.26898	
-2.27509	
-2.2644	
-2.26593	
-2.26288	
-2.26288	
-2.25677	
-2.25372	
-2.25372	
-2.2583	
-2.25983	
-2.26288	
-2.2644	
-2.26288	
-2.25983	
-2.26288	
-2.27356	
-2.27051	
-2.26593	
-2.26898	
-2.27661	
-2.28119	
-2.30103	
-2.3056	
-2.30713	
-2.3056	
-2.29492	
-2.29034	
-2.27509	
-2.26898	
-2.2583	
-2.24762	
-2.23389	
-2.22931	
-2.22015	
-2.22778	
-2.23083	
-2.22778	
-2.22626	
-2.23999	
-2.23846	
-2.24457	
-2.25067	
-2.26135	
-2.26593	
-2.26746	
-2.26898	
-2.27203	
-2.27814	
-2.27661	
-2.28119	
-2.27966	
-2.27966	
-2.27814	
-2.29034	
-2.31323	
-2.33307	
-2.33002	
-2.32544	
-2.32849	
-2.32239	
-2.30713	
-2.3056	
-2.2934	
-2.27661	
-2.25983	
-2.24762	
-2.23541	
-2.23846	
-2.23236	
-2.22931	
-2.23083	
-2.25372	
-2.25525	
-2.2583	
-2.26135	
-2.26898	
-2.27356	
-2.27051	
-2.26898	
-2.26288	
-2.25983	
-2.25525	
-2.2583	
-2.25525	
-2.25372	
-2.24762	
-2.24609	
-2.24609	
-2.24152	
-2.24152	
-2.23846	
-2.24457	
-2.25067	
-2.24915	
-2.25067	
-2.25677	
-2.26746	
-2.26746	
-2.26288	
-2.27203	
-2.27661	
-2.27966	
-2.28729	
-2.28729	
-2.29645	
-2.28577	
-2.26898	
-2.27051	
-2.26898	
-2.26898	
-2.26288	
-2.25677	
-2.24304	
-2.25067	
-2.24915	
-2.25372	
-2.25067	
-2.24609	
-2.24304	
-2.24915	
-2.24609	
-2.24457	
-2.24457	
-2.24609	
-2.24915	
-2.25983	
-2.2644	
-2.2644	
-2.27203	
-2.28577	
-2.30103	
-2.30713	
-2.31781	
-2.32544	
-2.33002	
-2.31476	
-2.30713	
-2.2934	
-2.27814	
-2.26593	
-2.25525	
-2.25525	
-2.24915	
-2.24762	
-2.24457	
-2.23694	
-2.22778	
-2.23083	
-2.23846	
-2.24915	
-2.2583	
-2.26288	
-2.26898	
-2.27356	
-2.27814	
-2.27814	
-2.27814	
-2.27966	
-2.28119	
-2.29797	
-2.30255	
-2.30865	
-2.3056	
-2.29797	
-2.27661	
-2.27509	
-2.27509	
-2.26898	
-2.26288	
-2.2583	
-2.25067	
-2.24152	
-2.22931	
-2.23083	
-2.23999	
-2.24152	
-2.24762	
-2.25983	
-2.25983	
-2.25067	
-2.25067	
-2.24304	
-2.23846	
-2.23389	
-2.22626	
-2.22473	
-2.22931	
-2.23541	
-2.24304	
-2.24915	
-2.25525	
-2.25983	
-2.2644	
-2.26898	
-2.26898	
-2.27051	
-2.27814	
-2.28729	
-2.29797	
-2.31171	
-2.33612	
-2.34985	
-2.3468	
-2.34528	
-2.33917	
-2.31781	
-2.30103	
-2.27814	
-2.26593	
-2.25372	
-2.24152	
-2.23236	
-2.2171	
-2.22321	
-2.22321	
-2.24304	
-2.24915	
-2.26135	
-2.26746	
-2.27051	
-2.2644	
-2.2644	
-2.26288	
-2.25677	
-2.25525	
-2.24915	
-2.24762	
-2.24304	
-2.23846	
-2.23694	
-2.23389	
-2.23236	
-2.22626	
-2.22626	
-2.22931	
-2.24457	
-2.26135	
-2.27509	
-2.29034	
-2.30408	
-2.31018	
-2.32239	
-2.31934	
-2.31781	
-2.31171	
-2.30713	
-2.29645	
-2.27814	
-2.26288	
-2.26135	
-2.26898	
-2.2644	
-2.26898	
-2.27051	
-2.27509	
-2.27203	
-2.27661	
-2.27814	
-2.28119	
-2.29187	
-2.29797	
-2.2995	
-2.2995	
-2.28729	
-2.27966	
-2.27661	
-2.2644	
-2.25677	
-2.23999	
-2.23541	
-2.23236	
-2.22473	
-2.22626	
-2.23694	
-2.23846	
-2.23541	
-2.23846	
-2.24304	
-2.24304	
-2.24609	
-2.25525	
-2.26288	
-2.26593	
-2.2644	
-2.26898	
-2.26898	
-2.26288	
-2.26898	
-2.27966	
-2.28577	
-2.30408	
-2.31934	
-2.31781	
-2.32239	
-2.32544	
-2.31171	
-2.3056	
-2.2934	
-2.28119	
-2.26288	
-2.24762	
-2.24609	
-2.24152	
-2.23999	
-2.23999	
-2.23236	
-2.23236	
-2.23999	
-2.23846	
-2.24304	
-2.24609	
-2.24762	
-2.24915	
-2.26898	
-2.27051	
-2.27203	
-2.28729	
-2.30103	
-2.29492	
-2.2934	
-2.27814	
-2.27356	
-2.26593	
-2.25983	
-2.25372	
-2.25372	
-2.24915	
-2.25372	
-2.25067	
-2.24609	
-2.24915	
-2.25525	
-2.25372	
-2.25525	
-2.26746	
-2.27661	
-2.28271	
-2.28271	
-2.27661	
-2.26898	
-2.27051	
-2.27356	
-2.27356	
-2.27661	
-2.28271	
-2.27966	
-2.27661	
-2.27356	
-2.27356	
-2.26898	
-2.27509	
-2.27509	
-2.27203	
-2.26746	
-2.27203	
-2.2644	
-2.25983	
-2.26288	
-2.26135	
-2.25372	
-2.25525	
-2.26135	
-2.26288	
-2.27509	
-2.27203	
-2.26135	
-2.2583	
-2.25067	
-2.24915	
-2.24915	
-2.24609	
-2.25067	
-2.25067	
-2.24609	
-2.24915	
-2.24915	
-2.24915	
-2.2583	
-2.26288	
-2.27051	
-2.27966	
-2.29034	
-2.30713	
-2.32239	
-2.3407	
-2.3468	
-2.35901	
-2.35901	
-2.35138	
-2.33917	
-2.31781	
-2.29492	
-2.27509	
-2.25983	
-2.23541	
-2.22626	
-2.21405	
-2.20795	
-2.20947	
-2.20184	
-2.20642	
-2.20795	
-2.20795	
-2.22015	
-2.23389	
-2.23083	
-2.23236	
-2.23846	
-2.24457	
-2.24762	
-2.25067	
-2.25525	
-2.26746	
-2.27356	
-2.28119	
-2.28271	
-2.27661	
-2.27814	
-2.27814	
-2.27661	
-2.27356	
-2.28119	
-2.27509	
-2.26898	
-2.27814	
-2.27661	
-2.27356	
-2.27203	
-2.27814	
-2.29645	
-2.30408	
-2.31018	
-2.32086	
-2.31476	
-2.30865	
-2.30408	
-2.29492	
-2.2934	
-2.29187	
-2.29187	
-2.28729	
-2.27509	
-2.26593	
-2.26135	
-2.25067	
-2.24152	
-2.24304	
-2.23541	
-2.23694	
-2.23541	
-2.23694	
-2.24152	
-2.24609	
-2.25067	
-2.25983	
-2.26898	
-2.27661	
-2.28729	
-2.28119	
-2.28729	
-2.28271	
-2.26898	
-2.27051	
-2.27356	
-2.26898	
-2.26746	
-2.2583	
-2.25372	
-2.24762	
-2.24457	
-2.23999	
-2.24609	
-2.24457	
-2.25067	
-2.27051	
-2.29034	
-2.30865	
-2.33154	
-2.34375	
-2.35901	
-2.35596	
-2.35748	
-2.3407	
-2.32239	
-2.30103	
-2.28729	
-2.26288	
-2.24152	
-2.23083	
-2.20947	
-2.20184	
-2.19269	
-2.20032	
-2.21252	
-2.21863	
-2.22015	
-2.22626	
-2.23083	
-2.23846	
-2.23999	
-2.24152	
-2.24762	
-2.25677	
-2.26746	
-2.27814	
-2.27356	
-2.27051	
-2.26746	
-2.27051	
-2.28577	
-2.30103	
-2.31323	
-2.31476	
-2.31781	
-2.30865	
-2.31018	
-2.31018	
-2.30408	
-2.29492	
-2.28577	
-2.27509	
-2.27356	
-2.26288	
-2.26135	
-2.25525	
-2.24762	
-2.24304	
-2.23541	
-2.22931	
-2.22473	
-2.21863	
-2.22473	
-2.22931	
-2.23694	
-2.24304	
-2.25525	
-2.2644	
-2.27051	
-2.27509	
-2.26898	
-2.26898	
-2.27356	
-2.29797	
-2.31781	
-2.32849	
-2.33765	
-2.34222	
-2.33765	
-2.33002	
-2.32391	
-2.31171	
-2.30255	
-2.2995	
-2.28271	
-2.27509	
-2.26135	
-2.24915	
-2.23694	
-2.23389	
-2.23389	
-2.21863	
-2.2171	
-2.22473	
-2.23083	
-2.22931	
-2.23083	
-2.23236	
-2.23541	
-2.23694	
-2.24304	
-2.23999	
-2.24762	
-2.24762	
-2.24915	
-2.25677	
-2.26135	
-2.26898	
-2.27661	
-2.28882	
-2.29492	
-2.2995	
-2.30865	
-2.30865	
-2.30103	
-2.30103	
-2.30408	
-2.30103	
-2.29034	
-2.29034	
-2.29492	
-2.2934	
-2.2934	
-2.29645	
-2.30103	
-2.30865	
-2.31018	
-2.30713	
-2.30865	
-2.30103	
-2.29034	
-2.27966	
-2.27203	
-2.26746	
-2.26135	
-2.24762	
-2.23694	
-2.21863	
-2.211	
-2.2049	
-2.20795	
-2.211	
-2.21863	
-2.23541	
-2.25067	
-2.25372	
-2.25983	
-2.25525	
-2.25677	
-2.26135	
-2.26593	
-2.26746	
-2.27203	
-2.26898	
-2.27203	
-2.27661	
-2.27814	
-2.27966	
-2.27661	
-2.27356	
-2.28271	
-2.28577	
-2.28119	
-2.27661	
-2.27203	
-2.26746	
-2.27051	
-2.27356	
-2.26898	
-2.2644	
-2.25983	
-2.26135	
-2.26746	
-2.2644	
-2.25983	
-2.27051	
-2.27661	
-2.29492	
-2.2995	
-2.31323	
-2.31781	
-2.31018	
-2.30255	
-2.3056	
-2.3056	
-2.30408	
-2.28882	
-2.27966	
-2.27356	
-2.26593	
-2.26135	
-2.25677	
-2.25677	
-2.25677	
-2.25983	
-2.24762	
-2.24152	
-2.24152	
-2.24457	
-2.24762	
-2.25067	
-2.26135	
-2.25677	
-2.25067	
-2.25677	
-2.26746	
-2.27051	
-2.26288	
-2.25677	
-2.26593	
-2.28729	
-2.2934	
-2.29034	
-2.2934	
-2.28729	
-2.29034	
-2.29187	
-2.2934	
-2.28882	
-2.28271	
-2.27661	
-2.27661	
-2.27814	
-2.28119	
-2.29034	
-2.2934	
-2.28577	
-2.28577	
-2.27356	
-2.27356	
-2.27051	
-2.26593	
-2.25677	
-2.24304	
-2.23846	
-2.24457	
-2.24609	
-2.25067	
-2.25677	
-2.25983	
-2.26288	
-2.26288	
-2.25983	
-2.25525	
-2.25372	
-2.24762	
-2.24915	
-2.24762	
-2.2583	
-2.25525	
-2.26135	
-2.2644	
-2.26898	
-2.26898	
-2.26898	
-2.27814	
-2.28119	
-2.29187	
-2.2934	
-2.29187	
-2.29034	
-2.28577	
-2.27814	
-2.29645	
-2.30713	
-2.30103	
-2.29492	
-2.29187	
-2.2995	
-2.3056	
-2.2995	
-2.30103	
-2.30103	
-2.2995	
-2.29034	
-2.28577	
-2.27051	
-2.26746	
-2.26288	
-2.2583	
-2.24762	
-2.24304	
-2.23694	
-2.23236	
-2.23389	
-2.24457	
-2.26135	
-2.27203	
-2.28119	
-2.28882	
-2.2934	
-2.2995	
-2.30255	
-2.29645	
-2.29645	
-2.28729	
-2.28577	
-2.26898	
-2.26593	
-2.2644	
-2.25983	
-2.25677	
-2.25525	
-2.24762	
-2.23846	
-2.24304	
-2.24304	
-2.23999	
-2.24457	
-2.24762	
-2.25372	
-2.25677	
-2.25525	
-2.27051	
-2.28119	
-2.28577	
-2.29797	
-2.31323	
-2.31476	
-2.30713	
-2.30255	
-2.29187	
-2.29187	
-2.28729	
-2.29034	
-2.28882	
-2.27966	
-2.27203	
-2.26593	
-2.25983	
-2.25372	
-2.24304	
-2.24457	
-2.24762	
-2.24609	
-2.25983	
-2.25677	
-2.25983	
-2.27661	
-2.27661	
-2.27661	
-2.27509	
-2.27661	
-2.27966	
-2.28729	
-2.28729	
-2.29034	
-2.27814	
-2.27661	
-2.27814	
-2.27661	
-2.27203	
-2.26746	
-2.2644	
-2.25983	
-2.26135	
-2.26593	
-2.27509	
-2.27814	
-2.27509	
-2.26593	
-2.26593	
-2.26898	
-2.27203	
-2.26593	
-2.25983	
-2.25677	
-2.25525	
-2.26746	
-2.27814	
-2.27509	
-2.27051	
-2.27051	
-2.29187	
-2.29645	
-2.29645	
-2.28882	
-2.2934	
-2.29187	
-2.28119	
-2.27814	
-2.27661	
-2.26746	
-2.2644	
-2.26288	
-2.26746	
-2.25983	
-2.25525	
-2.2583	
-2.2583	
-2.26135	
-2.26288	
-2.26135	
-2.25983	
-2.27966	
-2.27356	
-2.27203	
-2.26593	
-2.2644	
-2.2644	
-2.26593	
-2.27203	
-2.27814	
-2.28271	
-2.28729	
-2.28882	
-2.27203	
-2.26593	
-2.26593	
-2.26898	
-2.27203	
-2.27356	
-2.28577	
-2.28882	
-2.29187	
-2.28882	
-2.28119	
-2.27966	
-2.26898	
-2.26135	
-2.24915	
-2.25525	
-2.25372	
-2.2583	
-2.28119	
-2.29187	
-2.29492	
-2.29034	
-2.28577	
-2.28577	
-2.27356	
-2.26898	
-2.26135	
-2.26746	
-2.2644	
-2.26746	
-2.27051	
-2.27356	
-2.28271	
-2.28119	
-2.28271	
-2.27966	
-2.27814	
-2.28119	
-2.28577	
-2.29187	
-2.29187	
-2.29034	
-2.29034	
-2.29034	
-2.28729	
-2.28577	
-2.27661	
-2.27051	
-2.27203	
-2.26288	
-2.24915	
-2.24457	
-2.24152	
-2.24915	
-2.24609	
-2.24304	
-2.24152	
-2.23694	
-2.23389	
-2.23541	
-2.23999	
-2.23999	
-2.23694	
-2.23999	
-2.24152	
-2.25372	
-2.26288	
-2.27051	
-2.27356	
-2.27661	
-2.27661	
-2.27356	
-2.26746	
-2.26746	
-2.25983	
-2.2583	
-2.25983	
-2.26288	
-2.25983	
-2.26898	
-2.26898	
-2.27203	
-2.27966	
-2.28577	
-2.2934	
-2.29645	
-2.2995	
-2.29797	
-2.30103	
-2.29645	
-2.2934	
-2.28271	
-2.27966	
-2.29187	
-2.31171	
-2.33154	
-2.33307	
-2.33002	
-2.32544	
-2.33154	
-2.32239	
-2.31323	
-2.3056	
-2.30103	
-2.29034	
-2.26898	
-2.26288	
-2.25372	
-2.23694	
-2.22931	
-2.22473	
-2.22015	
-2.22015	
-2.22626	
-2.22778	
-2.23083	
-2.23083	
-2.23541	
-2.23236	
-2.23846	
-2.24152	
-2.25372	
-2.25067	
-2.2583	
-2.25983	
-2.28119	
-2.31781	
-2.33459	
-2.33765	
-2.34222	
-2.33154	
-2.32697	
-2.31323	
-2.32086	
-2.31934	
-2.3056	
-2.2934	
-2.28577	
-2.27356	
-2.26135	
-2.24915	
-2.24304	
-2.23846	
-2.23236	
-2.23083	
-2.23694	
-2.24762	
-2.25067	
-2.24762	
-2.24915	
-2.2583	
-2.25067	
-2.23846	
-2.23846	
-2.23846	
-2.24457	
-2.25067	
-2.25372	
-2.25372	
-2.24762	
-2.25677	
-2.25983	
-2.26746	
-2.26746	
-2.27203	
-2.26898	
-2.27203	
-2.27203	
-2.26746	
-2.26593	
-2.26288	
-2.25983	
-2.25372	
-2.25372	
-2.25372	
-2.25372	
-2.25525	
-2.25525	
-2.25677	
-2.2644	
-2.26288	
-2.2644	
-2.27051	
-2.28271	
-2.29034	
-2.2995	
-2.30103	
-2.30713	
-2.31171	
-2.30408	
-2.2995	
-2.2934	
-2.28729	
-2.28119	
-2.27356	
-2.26746	
-2.26898	
-2.26898	
-2.27203	
-2.27509	
-2.28271	
-2.28271	
-2.28271	
-2.27661	
-2.27051	
-2.27051	
-2.26135	
-2.26135	
-2.26288	
-2.26135	
-2.2583	
-2.27356	
-2.28577	
-2.27966	
-2.28882	
-2.29645	
-2.30255	
-2.30255	
-2.29034	
-2.30103	
-2.2995	
-2.29645	
-2.28577	
-2.27203	
-2.25677	
-2.26135	
-2.25525	
-2.24457	
-2.23236	
-2.23389	
-2.22778	
-2.22931	
-2.22778	
-2.22931	
-2.23541	
-2.24152	
-2.25372	
-2.25525	
-2.2583	
-2.2583	
-2.2644	
-2.26288	
-2.26898	
-2.27356	
-2.28577	
-2.28729	
-2.28882	
-2.27814	
-2.27814	
-2.28119	
-2.28729	
-2.28882	
-2.28577	
-2.27814	
-2.27051	
-2.27051	
-2.28577	
-2.29034	
-2.30103	
-2.30408	
-2.31018	
-2.32086	
-2.32544	
-2.32086	
-2.32544	
-2.33307	
-2.32239	
-2.30408	
-2.29187	
-2.28271	
-2.26746	
-2.2583	
-2.24457	
-2.23694	
-2.23389	
-2.22931	
-2.22321	
-2.22778	
-2.23083	
-2.23541	
-2.23846	
-2.25372	
-2.26288	
-2.2644	
-2.27509	
-2.27966	
-2.28729	
-2.29034	
-2.3056	
-2.3056	
-2.31323	
-2.30865	
-2.3056	
-2.3056	
-2.30103	
-2.2934	
-2.29034	
-2.27509	
-2.26593	
-2.26593	
-2.26135	
-2.2644	
-2.26135	
-2.27814	
-2.27966	
-2.28729	
-2.28882	
-2.28577	
-2.28119	
-2.27661	
-2.27661	
-2.27509	
-2.28119	
-2.29034	
-2.28882	
-2.29492	
-2.29645	
-2.29645	
-2.29034	
-2.27661	
-2.25983	
-2.26135	
-2.25983	
-2.27356	
-2.26593	
-2.26288	
-2.24762	
-2.24152	
-2.23694	
-2.24152	
-2.24457	
-2.24152	
-2.24457	
-2.24152	
-2.24609	
-2.25067	
-2.25372	
-2.25677	
-2.2583	
-2.26746	
-2.27814	
-2.29187	
-2.29797	
-2.30255	
-2.30713	
-2.30865	
-2.30255	
-2.30408	
-2.3056	
-2.30103	
-2.30255	
-2.2995	
-2.28729	
-2.27661	
-2.2644	
-2.25677	
-2.24915	
-2.24915	
-2.23999	
-2.23236	
-2.23389	
-2.23694	
-2.24457	
-2.25525	
-2.26898	
-2.28271	
-2.30103	
-2.30408	
-2.30255	
-2.30408	
-2.31171	
-2.32849	
-2.32391	
-2.31934	
-2.30865	
-2.30255	
-2.2934	
-2.28119	
-2.27203	
-2.26746	
-2.25067	
-2.24457	
-2.23389	
-2.23236	
-2.22931	
-2.23541	
-2.23999	
-2.2583	
-2.26593	
-2.28119	
-2.29492	
-2.30408	
-2.3056	
-2.31171	
-2.30865	
-2.31781	
-2.31934	
-2.30865	
-2.30713	
-2.28882	
-2.26593	
-2.25525	
-2.24304	
-2.24457	
-2.24304	
-2.23846	
-2.23694	
-2.23083	
-2.22015	
-2.22473	
-2.22321	
-2.22931	
-2.24304	
-2.24609	
-2.24152	
-2.25067	
-2.2644	
-2.27661	
-2.28119	
-2.27814	
-2.27661	
-2.28577	
-2.28271	
-2.28577	
-2.28882	
-2.29034	
-2.28729	
-2.28882	
-2.27814	
-2.27203	
-2.26746	
-2.26746	
-2.27661	
-2.27814	
-2.27509	
-2.26746	
-2.26746	
-2.26593	
-2.26593	
-2.26135	
-2.2583	
-2.25525	
-2.26135	
-2.27509	
-2.28119	
-2.2934	
-2.30865	
-2.31934	
-2.31934	
-2.31781	
-2.31018	
-2.30255	
-2.28729	
-2.28882	
-2.29034	
-2.27509	
-2.26288	
-2.25677	
-2.26135	
-2.25983	
-2.2583	
-2.2644	
-2.27356	
-2.27203	
-2.26898	
-2.26593	
-2.25983	
-2.25372	
-2.25372	
-2.25067	
-2.25067	
-2.25677	
-2.26135	
-2.27051	
-2.28119	
-2.29645	
-2.30713	
-2.30865	
-2.31323	
-2.31934	
-2.31323	
-2.30408	
-2.29187	
-2.27509	
-2.27203	
-2.26288	
-2.25677	
-2.24762	
-2.24304	
-2.24152	
-2.24152	
-2.24915	
-2.24457	
-2.24762	
-2.24304	
-2.24304	
-2.25372	
-2.24915	
-2.2583	
-2.2644	
-2.27051	
-2.27509	
-2.2934	
-2.3056	
-2.30865	
-2.31171	
-2.31018	
-2.31018	
-2.31018	
-2.31018	
-2.29645	
-2.28729	
-2.28882	
-2.28577	
-2.29034	
-2.29645	
-2.29187	
-2.28271	
-2.27203	
-2.27051	
-2.2644	
-2.2583	
-2.25677	
-2.24609	
-2.24762	
-2.24609	
-2.24152	
-2.24457	
-2.25372	
-2.26135	
-2.26593	
-2.26898	
-2.27356	
-2.27814	
-2.29492	
-2.30408	
-2.30408	
-2.2995	
-2.3056	
-2.30103	
-2.2934	
-2.29187	
-2.28729	
-2.28119	
-2.26898	
-2.26746	
-2.25677	
-2.25525	
-2.25372	
-2.24915	
-2.24762	
-2.24762	
-2.25067	
-2.24609	
-2.24457	
-2.25525	
-2.26746	
-2.26898	
-2.27509	
-2.27661	
-2.27966	
-2.28729	
-2.29492	
-2.29797	
-2.2995	
-2.30713	
-2.30408	
-2.30713	
-2.30713	
-2.31323	
-2.30713	
-2.31323	
-2.30103	
-2.29492	
-2.28271	
-2.2644	
-2.25372	
-2.24915	
-2.24457	
-2.23694	
-2.22931	
-2.23846	
-2.25067	
-2.25372	
-2.25677	
-2.26898	
-2.26898	
-2.26593	
-2.26746	
-2.26593	
-2.26746	
-2.2644	
-2.2644	
-2.26898	
-2.27509	
-2.27661	
-2.27966	
-2.27509	
-2.28577	
-2.28271	
-2.27814	
-2.27814	
-2.27203	
-2.27661	
-2.27814	
-2.27051	
-2.27509	
-2.27203	
-2.27051	
-2.27203	
-2.27203	
-2.26898	
-2.26593	
-2.25983	
-2.25372	
-2.25067	
-2.25525	
-2.25677	
-2.25067	
-2.26135	
-2.27509	
-2.28271	
-2.28271	
-2.28119	
-2.28119	
-2.28729	
-2.28882	
-2.27356	
-2.27509	
-2.29187	
-2.2934	
-2.29645	
-2.29797	
-2.2934	
-2.28577	
-2.27814	
-2.28119	
-2.27203	
-2.26898	
-2.26288	
-2.26135	
-2.25525	
-2.25677	
-2.26288	
-2.26593	
-2.27661	
-2.28119	
-2.27509	
-2.27203	
-2.26288	
-2.26135	
-2.25983	
-2.25983	
-2.26135	
-2.25983	
-2.2583	
-2.27509	
-2.27966	
-2.28271	
-2.28882	
-2.29645	
-2.29645	
-2.29187	
-2.28577	
-2.27661	
-2.27051	
-2.26288	
-2.26288	
-2.2583	
-2.2583	
-2.2644	
-2.26593	
-2.26593	
-2.27509	
-2.27661	
-2.27509	
-2.27814	
-2.28119	
-2.27814	
-2.27814	
-2.28119	
-2.28119	
-2.27509	
-2.27966	
-2.27203	
-2.27203	
-2.26746	
-2.25983	
-2.2583	
-2.25525	
-2.25525	
-2.2583	
-2.2644	
-2.26898	
-2.27966	
-2.30713	
-2.32239	
-2.32391	
-2.33002	
-2.33154	
-2.32086	
-2.31323	
-2.30713	
-2.2995	
-2.28119	
-2.27051	
-2.26746	
-2.25525	
-2.24304	
-2.23389	
-2.22931	
-2.22931	
-2.23846	
-2.23999	
-2.23999	
-2.24609	
-2.24915	
-2.25677	
-2.26135	
-2.26288	
-2.26135	
-2.26898	
-2.27051	
-2.26746	
-2.2583	
-2.25067	
-2.24762	
-2.24915	
-2.25372	
-2.25525	
-2.25983	
-2.25983	
-2.26746	
-2.2644	
-2.26288	
-2.26135	
-2.26288	
-2.25677	
-2.25677	
-2.25525	
-2.26135	
-2.27203	
-2.27814	
-2.28577	
-2.29187	
-2.30865	
-2.31781	
-2.31476	
-2.31476	
-2.30865	
-2.29797	
-2.2934	
-2.28119	
-2.27356	
-2.26593	
-2.25677	
-2.25525	
-2.25525	
-2.2583	
-2.2583	
-2.25525	
-2.24915	
-2.25372	
-2.25983	
-2.26288	
-2.26898	
-2.26898	
-2.27509	
-2.28119	
-2.29492	
-2.31018	
-2.32544	
-2.31781	
-2.32391	
-2.32391	
-2.31476	
-2.31476	
-2.31323	
-2.3056	
-2.29797	
-2.28271	
-2.26898	
-2.2644	
-2.25372	
-2.24609	
-2.22931	
-2.21558	
-2.21558	
-2.2171	
-2.21863	
-2.21863	
-2.22473	
-2.21863	
-2.21558	
-2.2171	
-2.23389	
-2.23846	
-2.24609	
-2.25525	
-2.26746	
-2.28119	
-2.29034	
-2.29034	
-2.29034	
-2.3056	
-2.30408	
-2.3056	
-2.2995	
-2.29034	
-2.28729	
-2.28729	
-2.28119	
-2.27966	
-2.27814	
-2.27814	
-2.27966	
-2.27661	
-2.27203	
-2.2644	
-2.26746	
-2.27051	
-2.2644	
-2.25525	
-2.25067	
-2.24762	
-2.24762	
-2.25067	
-2.25525	
-2.25067	
-2.25067	
-2.24762	
-2.24915	
-2.25525	
-2.25983	
-2.25983	
-2.26135	
-2.25983	
-2.25677	
-2.26288	
-2.27051	
-2.27661	
-2.27966	
-2.28271	
-2.29492	
-2.32239	
-2.33612	
-2.33459	
-2.33307	
-2.32849	
-2.32086	
-2.3056	
-2.29492	
-2.28577	
-2.28119	
-2.27051	
-2.25983	
-2.25983	
-2.25525	
-2.26288	
-2.27203	
-2.27661	
-2.28577	
-2.28271	
-2.27661	
-2.27356	
-2.27814	
-2.27814	
-2.27661	
-2.27356	
-2.27356	
-2.28271	
-2.28577	
-2.27814	
-2.28271	
-2.27203	
-2.27509	
-2.26898	
-2.26593	
-2.25067	
-2.25067	
-2.24609	
-2.24152	
-2.24457	
-2.24457	
-2.24762	
-2.25067	
-2.26593	
-2.26288	
-2.26135	
-2.2644	
-2.26746	
-2.26288	
-2.2644	
-2.26593	
-2.27203	
-2.27203	
-2.26593	
-2.2644	
-2.27203	
-2.27356	
-2.26898	
-2.2644	
-2.2644	
-2.26135	
-2.26593	
-2.25983	
-2.2644	
-2.25983	
-2.25525	
-2.25067	
-2.25372	
-2.25677	
-2.2583	
-2.25983	
-2.26288	
-2.2644	
-2.26746	
-2.27203	
-2.27509	
-2.26898	
-2.27509	
-2.28729	
-2.27966	
-2.28882	
-2.28577	
-2.28119	
-2.27509	
-2.27661	
-2.27966	
-2.28271	
-2.27661	
-2.27814	
-2.27661	
-2.27356	
-2.27814	
-2.26898	
-2.2644	
-2.26135	
-2.26135	
-2.26288	
-2.25525	
-2.24915	
-2.25677	
-2.25983	
-2.26746	
-2.26135	
-2.2644	
-2.26898	
-2.27051	
-2.27051	
-2.28119	
-2.2934	
-2.2934	
-2.2934	
-2.30103	
-2.30103	
-2.30255	
-2.30103	
-2.3056	
-2.30408	
-2.30408	
-2.2934	
-2.29645	
-2.28119	
-2.27509	
-2.27203	
-2.26746	
-2.26135	
-2.25525	
-2.26135	
-2.24915	
-2.25067	
-2.24915	
-2.24915	
-2.24915	
-2.25372	
-2.24915	
-2.24762	
-2.25372	
-2.26135	
-2.25983	
-2.26593	
-2.27203	
-2.27051	
-2.27661	
-2.27966	
-2.28119	
-2.27814	
-2.27203	
-2.27509	
-2.27203	
-2.27661	
-2.27814	
-2.27814	
-2.27356	
-2.27966	
-2.28729	
-2.30103	
-2.31018	
-2.2995	
-2.29187	
-2.27966	
-2.27051	
-2.26593	
-2.25525	
-2.25067	
-2.25067	
-2.24609	
-2.24457	
-2.24915	
-2.25677	
-2.26746	
-2.27356	
-2.27661	
-2.2934	
-2.29797	
-2.29645	
-2.2934	
-2.28729	
-2.28119	
-2.27661	
-2.27509	
-2.27051	
-2.27509	
-2.26746	
-2.2644	
-2.2644	
-2.26288	
-2.26135	
-2.25983	
-2.25067	
-2.24762	
-2.24609	
-2.25067	
-2.25983	
-2.2583	
-2.26135	
-2.27203	
-2.26898	
-2.27509	
-2.28119	
-2.27966	
-2.28882	
-2.30103	
-2.2995	
-2.30255	
-2.29492	
-2.29187	
-2.28729	
-2.27966	
-2.27814	
-2.27356	
-2.26746	
-2.25525	
-2.2583	
-2.25372	
-2.24609	
-2.25067	
-2.2583	
-2.2644	
-2.27051	
-2.27203	
-2.28271	
-2.29645	
-2.30713	
-2.3056	
-2.29492	
-2.29645	
-2.28882	
-2.27966	
-2.26746	
-2.26746	
-2.26135	
-2.24915	
-2.24304	
-2.23999	
-2.23389	
-2.23083	
-2.22626	
-2.22778	
-2.22015	
-2.22321	
-2.22931	
-2.23694	
-2.24304	
-2.24609	
-2.25525	
-2.2644	
-2.27509	
-2.27661	
-2.27356	
-2.27509	
-2.27814	
-2.29187	
-2.28729	
-2.28882	
-2.29034	
-2.29492	
-2.29797	
-2.29797	
-2.30255	
-2.2995	
-2.2995	
-2.29187	
-2.28882	
-2.27356	
-2.2644	
-2.26135	
-2.26288	
-2.25983	
-2.2644	
-2.25983	
-2.2644	
-2.2583	
-2.25677	
-2.2583	
-2.2644	
-2.27814	
-2.27966	
-2.27661	
-2.26593	
-2.26593	
-2.25983	
-2.25525	
-2.25525	
-2.2583	
-2.25983	
-2.25983	
-2.25983	
-2.25525	
-2.24762	
-2.24762	
-2.25372	
-2.25067	
-2.25372	
-2.2583	
-2.26898	
-2.27203	
-2.28271	
-2.29034	
-2.29797	
-2.2995	
-2.31476	
-2.3407	
-2.35748	
-2.35596	
-2.34222	
-2.32544	
-2.30865	
-2.28729	
-2.26593	
-2.24915	
-2.23083	
-2.21863	
-2.23083	
-2.22321	
-2.22931	
-2.22626	
-2.23694	
-2.24304	
-2.24304	
-2.24304	
-2.24609	
-2.25372	
-2.2583	
-2.2644	
-2.26898	
-2.27203	
-2.26898	
-2.27203	
-2.26898	
-2.26898	
-2.26288	
-2.2644	
-2.26898	
-2.27051	
-2.27509	
-2.28119	
-2.28119	
-2.27966	
-2.27966	
-2.27661	
-2.26898	
-2.2644	
-2.2644	
-2.2583	
-2.26135	
-2.25983	
-2.2583	
-2.25067	
-2.24152	
-2.23846	
-2.23999	
-2.23999	
-2.24304	
-2.24762	
-2.24915	
-2.25067	
-2.25372	
-2.25677	
-2.25677	
-2.25372	
-2.26135	
-2.25983	
-2.26746	
-2.27509	
-2.27356	
-2.27661	
-2.27814	
-2.28577	
-2.28271	
-2.28882	
-2.28729	
-2.27966	
-2.27966	
-2.28729	
-2.28882	
-2.28882	
-2.28271	
-2.27509	
-2.27051	
-2.27051	
-2.27661	
-2.29187	
-2.30103	
-2.29797	
-2.29645	
-2.2934	
-2.28119	
-2.27661	
-2.27509	
-2.27509	
-2.27509	
-2.27203	
-2.2644	
-2.26288	
-2.26288	
-2.25067	
-2.24762	
-2.24152	
-2.24457	
-2.23999	
-2.24457	
-2.24915	
-2.24915	
-2.25983	
-2.26135	
-2.28119	
-2.29797	
-2.29645	
-2.29645	
-2.28271	
-2.27966	
-2.27966	
-2.28729	
-2.27509	
-2.26898	
-2.25677	
-2.25067	
-2.24457	
-2.23846	
-2.23999	
-2.24457	
-2.24457	
-2.23846	
-2.23999	
-2.23694	
-2.23846	
-2.24609	
-2.25067	
-2.25372	
-2.26288	
-2.26288	
-2.2644	
-2.25983	
-2.2583	
-2.2583	
-2.25983	
-2.26288	
-2.26288	
-2.27203	
-2.27356	
-2.27051	
-2.27356	
-2.27051	
-2.2644	
-2.26135	
-2.25067	
-2.25067	
-2.24915	
-2.24609	
-2.24762	
-2.24609	
-2.24762	
-2.24457	
-2.26288	
-2.26898	
-2.26593	
-2.27051	
-2.27203	
-2.27203	
-2.26898	
-2.27051	
-2.26898	
-2.27203	
-2.26898	
-2.27356	
-2.26593	
-2.27509	
-2.27814	
-2.27661	
-2.27509	
-2.27661	
-2.27051	
-2.2644	
-2.2644	
-2.25983	
-2.2583	
-2.26288	
-2.2644	
-2.25983	
-2.26135	
-2.25983	
-2.2583	
-2.25067	
-2.25525	
-2.26135	
-2.2644	
-2.27356	
-2.27966	
-2.27966	
-2.27966	
-2.27814	
-2.27814	
-2.28271	
-2.28729	
-2.29034	
-2.29034	
-2.2934	
-2.29492	
-2.29034	
-2.27814	
-2.26898	
-2.26135	
-2.25677	
-2.25983	
-2.25372	
-2.24152	
-2.23846	
-2.23846	
-2.23541	
-2.23999	
-2.24152	
-2.24762	
-2.26288	
-2.25677	
-2.25983	
-2.2583	
-2.26898	
-2.27203	
-2.27203	
-2.26898	
-2.26898	
-2.26898	
-2.26593	
-2.26288	
-2.25983	
-2.2644	
-2.25525	
-2.2583	
-2.27356	
-2.28729	
-2.2934	
-2.29034	
-2.30408	
-2.31934	
-2.31934	
-2.30408	
-2.30103	
-2.2934	
-2.27661	
-2.27203	
-2.26746	
-2.25525	
-2.24762	
-2.23541	
-2.23083	
-2.22321	
-2.22015	
-2.22626	
-2.22778	
-2.22321	
-2.22778	
-2.23083	
-2.23846	
-2.25372	
-2.25525	
-2.2583	
-2.25983	
-2.25677	
-2.25677	
-2.24915	
-2.24609	
-2.24457	
-2.2583	
-2.25677	
-2.26288	
-2.25067	
-2.24762	
-2.24762	
-2.25067	
-2.25525	
-2.25983	
-2.25372	
-2.25372	
-2.25677	
-2.25677	
-2.2583	
-2.25677	
-2.25372	
-2.25067	
-2.25067	
-2.25067	
-2.24457	
-2.24457	
-2.24304	
-2.2583	
-2.2644	
-2.26746	
-2.26746	
-2.27051	
-2.27203	
-2.26593	
-2.26746	
-2.27203	
-2.27203	
-2.27509	
-2.27509	
-2.27661	
-2.27509	
-2.27356	
-2.27661	
-2.27509	
-2.27661	
-2.27661	
-2.27661	
-2.27051	
-2.26746	
-2.26593	
-2.2644	
-2.2644	
-2.26288	
-2.25677	
-2.25677	
-2.27966	
-2.27661	
-2.27509	
-2.27509	
-2.27051	
-2.2644	
-2.26135	
-2.25983	
-2.25983	
-2.25677	
-2.2583	
-2.27356	
-2.28729	
-2.2995	
-2.30103	
-2.2934	
-2.28729	
-2.27966	
-2.26593	
-2.27051	
-2.2583	
-2.24762	
-2.24304	
-2.23541	
-2.23236	
-2.23083	
-2.23236	
-2.23389	
-2.23999	
-2.24152	
-2.24762	
-2.24609	
-2.25983	
-2.26135	
-2.26288	
-2.27203	
-2.27661	
-2.28729	
-2.2934	
-2.29034	
-2.27814	
-2.27814	
-2.27356	
-2.26746	
-2.25677	
-2.25372	
-2.25525	
-2.25525	
-2.25372	
-2.25067	
-2.24915	
-2.25525	
-2.27203	
-2.27661	
-2.27203	
-2.26898	
-2.26135	
-2.24609	
-2.25525	
-2.2583	
-2.25677	
-2.25525	
-2.24915	
-2.24609	
-2.24304	
-2.23846	
-2.24609	
-2.25372	
-2.24915	
-2.24457	
-2.23846	
-2.24457	
-2.24762	
-2.25067	
-2.25067	
-2.25067	
-2.24762	
-2.24915	
-2.26288	
-2.26135	
-2.25983	
-2.25067	
-2.2583	
-2.2644	
-2.27661	
-2.28577	
-2.29034	
-2.27966	
-2.27814	
-2.27814	
-2.28119	
-2.27203	
-2.26135	
-2.26135	
-2.26746	
-2.26135	
-2.25983	
-2.24609	
-2.23999	
-2.23389	
-2.24304	
-2.24915	
-2.25372	
-2.25067	
-2.25067	
-2.24915	
-2.25067	
-2.24762	
-2.2583	
-2.2583	
-2.26746	
-2.28119	
-2.29797	
-2.30255	
-2.31476	
-2.32849	
-2.33459	
-2.33307	
-2.33002	
-2.31171	
-2.30103	
-2.28119	
-2.26898	
-2.2644	
-2.26288	
-2.25372	
-2.23846	
-2.23541	
-2.23083	
-2.23541	
-2.24152	
-2.24304	
-2.24304	
-2.24609	
-2.23541	
-2.23846	
-2.23236	
-2.22626	
-2.22015	
-2.22778	
-2.23389	
-2.23389	
-2.24457	
-2.25067	
-2.25525	
-2.25983	
-2.2644	
-2.26593	
-2.26135	
-2.27966	
-2.29187	
-2.28577	
-2.27661	
-2.26746	
-2.25525	
-2.23999	
-2.23083	
-2.22473	
-2.22473	
-2.21863	
-2.21558	
-2.24457	
-2.26135	
-2.26898	
-2.27203	
-2.26898	
-2.26898	
-2.26288	
-2.26746	
-2.26746	
-2.25983	
-2.2583	
-2.2644	
-2.27203	
-2.29187	
-2.30103	
-2.29797	
-2.29797	
-2.29492	
-2.28119	
-2.27814	
-2.27814	
-2.26746	
-2.25983	
-2.24915	
-2.24152	
-2.23389	
-2.22778	
-2.22778	
-2.23083	
-2.23846	
-2.25372	
-2.26593	
-2.27966	
-2.28119	
-2.29492	
-2.2995	
-2.30408	
-2.2995	
-2.29034	
-2.27356	
-2.25067	
-2.24762	
-2.24609	
-2.24609	
-2.23541	
-2.22931	
-2.22626	
-2.22931	
-2.22015	
-2.22321	
-2.22931	
-2.23083	
-2.24304	
-2.24304	
-2.24457	
-2.24915	
-2.24762	
-2.25372	
-2.2583	
-2.2644	
-2.28271	
-2.30255	
-2.31171	
-2.32086	
-2.32239	
-2.31934	
-2.30713	
-2.29492	
-2.28882	
-2.27661	
-2.2644	
-2.2583	
-2.24915	
-2.23541	
-2.23846	
-2.23694	
-2.24152	
-2.23999	
-2.23389	
-2.24609	
-2.25983	
-2.26288	
-2.2644	
-2.26288	
-2.25677	
-2.24915	
-2.24609	
-2.24762	
-2.2583	
-2.26593	
-2.26898	
-2.27661	
-2.27356	
-2.26593	
-2.26593	
-2.26593	
-2.26135	
-2.26746	
-2.26746	
-2.25677	
-2.25372	
-2.25983	
-2.27051	
-2.28577	
-2.29034	
-2.28577	
-2.27814	
-2.27051	
-2.26135	
-2.25677	
-2.24609	
-2.24304	
-2.24457	
-2.25525	
-2.25372	
-2.24915	
-2.24915	
-2.24915	
-2.24152	
-2.24304	
-2.24609	
-2.25372	
-2.26288	
-2.27203	
-2.28271	
-2.28729	
-2.28729	
-2.28882	
-2.28577	
-2.28729	
-2.27661	
-2.27203	
-2.2644	
-2.26593	
-2.26288	
-2.26288	
-2.25372	
-2.24762	
-2.23694	
-2.23999	
-2.24457	
-2.25983	
-2.26288	
-2.26746	
-2.26898	
-2.26593	
-2.26288	
-2.2583	
-2.25983	
-2.2644	
-2.26288	
-2.25677	
-2.25983	
-2.2583	
-2.25525	
-2.25067	
-2.24457	
-2.24304	
-2.24457	
-2.24609	
-2.24304	
-2.23389	
-2.23541	
-2.24609	
-2.25372	
-2.2583	
-2.2583	
-2.25983	
-2.26288	
-2.25983	
-2.26898	
-2.27661	
-2.29187	
-2.29187	
-2.29797	
-2.29645	
-2.29187	
-2.29034	
-2.29645	
-2.29797	
-2.30255	
-2.29187	
-2.27966	
-2.28882	
-2.29492	
-2.29187	
-2.29187	
-2.29034	
-2.27661	
-2.27356	
-2.25983	
-2.25372	
-2.24304	
-2.22931	
-2.21863	
-2.21252	
-2.2171	
-2.22473	
-2.23389	
-2.24152	
-2.26746	
-2.29645	
-2.32544	
-2.33307	
-2.33459	
-2.32391	
-2.30865	
-2.29492	
-2.27203	
-2.25067	
-2.23083	
-2.22321	
-2.211	
-2.21405	
-2.20642	
-2.20337	
-2.21252	
-2.20795	
-2.20642	
-2.20642	
-2.20642	
-2.20947	
-2.22473	
-2.23541	
-2.24304	
-2.24152	
-2.23999	
-2.24304	
-2.24762	
-2.24915	
-2.26135	
-2.25677	
-2.2583	
-2.26135	
-2.25677	
-2.24762	
-2.25067	
-2.25525	
-2.2644	
-2.27509	
-2.27661	
-2.27661	
-2.27356	
-2.27509	
-2.27661	
-2.27356	
-2.27051	
-2.27203	
-2.26898	
-2.26288	
-2.2583	
-2.25677	
-2.25525	
-2.24304	
-2.23694	
-2.23541	
-2.23694	
-2.23846	
-2.24762	
-2.27966	
-2.30408	
-2.31934	
-2.33002	
-2.32239	
-2.31476	
-2.30713	
-2.29797	
-2.28271	
-2.27509	
-2.2583	
-2.24762	
-2.24457	
-2.24304	
-2.23541	
-2.23236	
-2.22931	
-2.23236	
-2.22778	
-2.23083	
-2.23083	
-2.23541	
-2.24762	
-2.2583	
-2.26746	
-2.27661	
-2.2934	
-2.29034	
-2.27203	
-2.2583	
-2.25372	
-2.24762	
-2.25067	
-2.2583	
-2.25372	
-2.24609	
-2.23846	
-2.24915	
-2.25525	
-2.25067	
-2.26593	
-2.2644	
-2.26288	
-2.26898	
-2.27356	
-2.28271	
-2.27661	
-2.28119	
-2.26898	
-2.2644	
-2.25372	
-2.24152	
-2.23389	
-2.22778	
-2.23541	
-2.22778	
-2.22626	
-2.2171	
-2.22015	
-2.23083	
-2.22931	
-2.23083	
-2.23389	
-2.24457	
-2.24304	
-2.25525	
-2.2583	
-2.26593	
-2.26746	
-2.27356	
-2.27661	
-2.27814	
-2.29034	
-2.30865	
-2.31934	
-2.32239	
-2.31934	
-2.32239	
-2.31781	
-2.29645	
-2.28119	
-2.27051	
-2.25983	
-2.23846	
-2.23541	
-2.22931	
-2.21558	
-2.21252	
-2.20642	
-2.21863	
-2.22015	
-2.22321	
-2.23389	
-2.26135	
-2.27051	
-2.28577	
-2.28729	
-2.29187	
-2.29187	
-2.30103	
-2.3056	
-2.31018	
-2.30255	
-2.29492	
-2.28577	
-2.26898	
-2.25677	
-2.23694	
-2.23083	
-2.22931	
-2.2171	
-2.2171	
-2.21405	
-2.22473	
-2.21405	
-2.21405	
-2.211	
-2.22626	
-2.23236	
-2.24609	
-2.24915	
-2.25067	
-2.25525	
-2.25983	
-2.27051	
-2.27509	
-2.27814	
-2.27051	
-2.2644	
-2.26746	
-2.26746	
-2.2644	
-2.27356	
-2.27203	
-2.2644	
-2.25525	
-2.25372	
-2.24457	
-2.24762	
-2.24304	
-2.23694	
-2.23236	
-2.23541	
-2.23083	
-2.23083	
-2.22931	
-2.23389	
-2.24304	
-2.24457	
-2.25677	
-2.26898	
-2.28729	
-2.29034	
-2.29034	
-2.28729	
-2.29034	
-2.2934	
-2.29797	
-2.2934	
-2.28729	
-2.28119	
-2.2995	
-2.31323	
-2.31018	
-2.2995	
-2.2995	
-2.28882	
-2.28119	
-2.27966	
-2.27966	
-2.27509	
-2.2644	
-2.25067	
-2.23694	
-2.21863	
-2.20337	
-2.20795	
-2.20337	
-2.19421	
-2.18658	
-2.18353	
-2.19116	
-2.20795	
-2.22778	
-2.25067	
-2.27509	
-2.3056	
-2.33154	
-2.33917	
-2.32849	
-2.31781	
-2.30255	
-2.28577	
-2.26898	
-2.24915	
-2.24152	
-2.24152	
-2.23846	
-2.23389	
-2.22473	
-2.23389	
-2.23541	
-2.22626	
-2.22473	
-2.23389	
-2.24915	
-2.26135	
-2.27966	
-2.28729	
-2.28119	
-2.27509	
-2.27356	
-2.26746	
-2.27051	
-2.2583	
-2.25677	
-2.24915	
-2.23846	
-2.23694	
-2.23999	
-2.24915	
-2.25983	
-2.27356	
-2.29034	
-2.30103	
-2.30255	
-2.3056	
-2.31323	
-2.34375	
-2.36664	
-2.3819	
-2.37579	
-2.36664	
-2.33612	
-2.31323	
-2.28729	
-2.25677	
-2.22473	
-2.20032	
-2.17896	
-2.1698	
-2.1698	
-2.16827	
-2.17133	
-2.17438	
-2.18201	
-2.18658	
-2.211	
-2.22015	
-2.22931	
-2.23999	
-2.24762	
-2.24915	
-2.25372	
-2.24609	
-2.25372	
-2.2583	
-2.25372	
-2.25983	
-2.2644	
-2.26288	
-2.25983	
-2.25067	
-2.24457	
-2.22931	
-2.22626	
-2.22321	
-2.21405	
-2.2171	
-2.22015	
-2.23083	
-2.24762	
-2.25677	
-2.26746	
-2.28119	
-2.31018	
-2.32849	
-2.33612	
-2.33307	
-2.33154	
-2.32849	
-2.32086	
-2.31323	
-2.30713	
-2.29034	
-2.27356	
-2.25983	
-2.24609	
-2.23389	
-2.22931	
-2.22473	
-2.21863	
-2.22015	
-2.22931	
-2.22321	
-2.21863	
-2.22473	
-2.23236	
-2.23999	
-2.24152	
-2.25067	
-2.25677	
-2.27356	
-2.30865	
-2.33002	
-2.32849	
-2.32697	
-2.31934	
-2.31781	
-2.3056	
-2.28729	
-2.27661	
-2.26898	
-2.26135	
-2.25067	
-2.24762	
-2.23694	
-2.22778	
-2.2171	
-2.211	
-2.2049	
-2.20642	
-2.211	
-2.20947	
-2.21863	
-2.21863	
-2.22473	
-2.22931	
-2.23846	
-2.24762	
-2.24609	
-2.25067	
-2.26898	
-2.28119	
-2.28577	
-2.29034	
-2.29645	
-2.30103	
-2.30103	
-2.31018	
-2.31476	
-2.33612	
-2.35138	
-2.34985	
-2.33307	
-2.31323	
-2.3056	
-2.2934	
-2.27356	
-2.25525	
-2.24304	
-2.22778	
-2.21558	
-2.20642	
-2.21252	
-2.20642	
-2.22321	
-2.23389	
-2.24609	
-2.26898	
-2.28729	
-2.29034	
-2.29645	
-2.29645	
-2.28882	
-2.28119	
-2.26898	
-2.26288	
-2.25983	
-2.27051	
-2.28119	
-2.2934	
-2.29492	
-2.28882	
-2.29797	
-2.30255	
-2.30408	
-2.29797	
-2.28729	
-2.28577	
-2.27356	
-2.26898	
-2.26135	
-2.25067	
-2.24152	
-2.24457	
-2.26746	
-2.27356	
-2.27203	
-2.26288	
-2.26746	
-2.27203	
-2.26288	
-2.2644	
-2.25372	
-2.25525	
-2.24609	
-2.23999	
-2.24457	
-2.25677	
-2.26746	
-2.26593	
-2.25983	
-2.24762	
-2.24762	
-2.24762	
-2.25677	
-2.25983	
-2.27051	
-2.27966	
-2.28882	
-2.30103	
-2.29797	
-2.29492	
-2.28577	
-2.27814	
-2.26593	
-2.2583	
-2.24915	
-2.24152	
-2.23083	
-2.22473	
-2.21558	
-2.20947	
-2.21252	
-2.23846	
-2.25525	
-2.27356	
-2.28729	
-2.29034	
-2.28729	
-2.28729	
-2.2934	
-2.30255	
-2.30713	
-2.30408	
-2.29492	
-2.27661	
-2.26593	
-2.24762	
-2.24609	
-2.24457	
-2.23694	
-2.23541	
-2.23083	
-2.22626	
-2.22473	
-2.21863	
-2.21863	
-2.23236	
-2.24304	
-2.25525	
-2.26593	
-2.27509	
-2.31781	
-2.35443	
-2.36816	
-2.36206	
-2.36053	
-2.36206	
-2.35138	
-2.33307	
-2.30865	
-2.2934	
-2.26288	
-2.22931	
-2.20032	
-2.17896	
-2.17743	
-2.17896	
-2.19269	
-2.22321	
-2.22931	
-2.22778	
-2.22626	
-2.23236	
-2.23694	
-2.24609	
-2.27203	
-2.29492	
-2.29645	
-2.28729	
-2.28577	
-2.27966	
-2.27356	
-2.26746	
-2.26746	
-2.27203	
-2.29034	
-2.29645	
-2.29492	
-2.31018	
-2.30713	
-2.30103	
-2.31171	
-2.3468	
-2.36359	
-2.36206	
-2.35901	
-2.34222	
-2.33765	
-2.32086	
-2.31323	
-2.31781	
-2.32086	
-2.2995	
-2.30103	
-2.2995	
-2.30103	
-2.31323	
-2.33307	
-2.35291	
-2.35901	
-2.3468	
-2.33002	
-2.30255	
-2.29797	
-2.28882	
-2.28119	
-2.30103	
-2.2995	
-2.28729	
-2.29187	
-2.31781	
-2.33612	
-2.34985	
-2.33307	
-2.31323	
-2.29187	
-2.26135	
-2.24915	
-2.23999	
-2.2171	
-2.19269	
-2.18353	
-2.16064	
-2.15912	
-2.16217	
-2.15912	
-2.1347	
-2.1286	
-2.1286	
-2.13165	
-2.14996	
-2.16064	
-2.16827	
-2.18811	
-2.20032	
-2.22473	
-2.24609	
-2.26593	
-2.27509	
-2.28119	
-2.27661	
-2.28119	
-2.28119	
-2.28577	
-2.29034	
-2.31323	
-2.32849	
-2.33154	
-2.33612	
-2.32697	
-2.30255	
-2.28119	
-2.28271	
-2.27356	
-2.2644	
-2.25372	
-2.23846	
-2.22626	
-2.211	
-2.2049	
-2.21252	
-2.22473	
-2.22473	
-2.26135	
-2.29187	
-2.31018	
-2.32697	
-2.32697	
-2.31171	
-2.32544	
-2.32391	
-2.31934	
-2.30408	
-2.3056	
-2.3056	
-2.30713	
-2.29797	
-2.29034	
-2.28271	
-2.2644	
-2.24915	
-2.23236	
-2.22015	
-2.21252	
-2.20032	
-2.19421	
-2.18353	
-2.18658	
-2.19574	
-2.20337	
-2.211	
-2.22015	
-2.24609	
-2.27203	
-2.29187	
-2.3056	
-2.30408	
-2.31781	
-2.3407	
-2.33765	
-2.32391	
-2.31934	
-2.3407	
-2.36969	
-2.37732	
-2.37732	
-2.36359	
-2.33459	
-2.31171	
-2.28271	
-2.25372	
-2.23083	
-2.20642	
-2.19269	
-2.17438	
-2.16217	
-2.15607	
-2.15607	
-2.17133	
-2.18048	
-2.18506	
-2.18506	
-2.19879	
-2.20947	
-2.22015	
-2.23541	
-2.24915	
-2.27509	
-2.29645	
-2.30408	
-2.31781	
-2.34222	
-2.34985	
-2.35291	
-2.33612	
-2.32544	
-2.30713	
-2.28271	
-2.26746	
-2.24915	
-2.23846	
-2.23389	
-2.2171	
-2.21252	
-2.21558	
-2.23846	
-2.29034	
-2.33154	
-2.3468	
-2.3407	
-2.33917	
-2.31476	
-2.29492	
-2.27356	
-2.25067	
-2.23236	
-2.22473	
-2.2171	
-2.20337	
-2.19879	
-2.20032	
-2.20947	
-2.22931	
-2.24762	
-2.29187	
-2.36816	
-2.39868	
-2.40784	
-2.40479	
-2.40173	
-2.37885	
-2.3468	
-2.31781	
-2.2934	
-2.26288	
-2.23694	
-2.22015	
-2.21252	
-2.19879	
-2.18658	
-2.17743	
-2.16827	
-2.16675	
-2.1759	
-2.18048	
-2.19574	
-2.20642	
-2.22015	
-2.23236	
-2.24152	
-2.26135	
-2.28577	
-2.29492	
-2.29797	
-2.31018	
-2.31934	
-2.33002	
-2.31934	
-2.30865	
-2.2995	
-2.31018	
-2.31323	
-2.34985	
-2.34985	
-2.34375	
-2.33154	
-2.30713	
-2.30103	
-2.29187	
-2.27203	
-2.25067	
-2.23694	
-2.23846	
-2.22931	
-2.21405	
-2.21863	
-2.24152	
-2.24609	
-2.25067	
-2.25372	
-2.25677	
-2.26288	
-2.29034	
-2.30255	
-2.31476	
-2.33459	
-2.35138	
-2.35138	
-2.3407	
-2.31781	
-2.29645	
-2.27203	
-2.25067	
-2.22473	
-2.20642	
-2.2171	
-2.22321	
-2.23694	
-2.24457	
-2.25677	
-2.24762	
-2.24457	
-2.22778	
-2.21863	
-2.22931	
-2.22778	
-2.22473	
-2.22015	
-2.21863	
-2.20795	
-2.20795	
-2.20642	
-2.21558	
-2.2171	
-2.23083	
-2.24304	
-2.25372	
-2.26746	
-2.29187	
-2.29797	
-2.30865	
-2.32544	
-2.34375	
-2.34985	
-2.33612	
-2.32239	
-2.31781	
-2.2995	
-2.28577	
-2.26746	
-2.25983	
-2.27661	
-2.29034	
-2.29645	
-2.2934	
-2.27966	
-2.27509	
-2.27051	
-2.26593	
-2.25677	
-2.25677	
-2.25372	
-2.23846	
-2.22626	
-2.211	
-2.21252	
-2.22626	
-2.24304	
-2.26288	
-2.27661	
-2.30713	
-2.33917	
-2.34528	
-2.35138	
-2.3468	
-2.32849	
-2.30865	
-2.27203	
-2.25525	
-2.2644	
-2.2995	
-2.30865	
-2.30865	
-2.31018	
-2.29492	
-2.28882	
-2.27966	
-2.26898	
-2.24609	
-2.22931	
-2.211	
-2.2049	
-2.20337	
-2.2171	
-2.23389	
-2.24152	
-2.24915	
-2.25067	
-2.24457	
-2.24457	
-2.23541	
-2.23694	
-2.24304	
-2.24304	
-2.2583	
-2.26135	
-2.25525	
-2.24304	
-2.24304	
-2.24152	
-2.23694	
-2.24915	
-2.27509	
-2.28271	
-2.28119	
-2.27966	
-2.28577	
-2.29797	
-2.2934	
-2.28729	
-2.28119	
-2.27661	
-2.26898	
-2.26135	
-2.25067	
-2.27051	
-2.28271	
-2.27966	
-2.27356	
-2.27814	
-2.2995	
-2.29797	
-2.2934	
-2.30408	
-2.31323	
-2.29645	
-2.27203	
-2.25677	
-2.25525	
-2.25372	
-2.28729	
-2.29492	
-2.31323	
-2.33459	
-2.33917	
-2.36359	
-2.35138	
-2.35596	
-2.35443	
-2.35748	
-2.35291	
-2.34528	
-2.33002	
-2.32697	
-2.31171	
-2.32849	
-2.30255	
-2.27203	
-2.23999	
-2.2171	
-2.18811	
-2.1698	
-2.15302	
-2.14844	
-2.15302	
-2.21405	
-2.26288	
-2.30255	
-2.31323	
-2.33459	
-2.37732	
-2.39716	
-2.39105	
-2.36053	
-2.32239	
-2.27661	
-2.22015	
-2.17285	
-2.15302	
-2.14233	
-2.1347	
-2.11334	
-2.10419	
-2.11029	
-2.1225	
-2.17438	
-2.20642	
-2.23389	
-2.25372	
-2.25983	
-2.2583	
-2.24304	
-2.24457	
-2.25372	
-2.25067	
-2.24915	
-2.23999	
-2.23236	
-2.22473	
-2.23236	
-2.2583	
-2.28577	
-2.32239	
-2.33459	
-2.33002	
-2.31171	
-2.30103	
-2.28882	
-2.28271	
-2.27814	
-2.27509	
-2.2644	
-2.24915	
-2.25067	
-2.24609	
-2.24609	
-2.24152	
-2.23389	
-2.21863	
-2.19879	
-2.19421	
-2.2049	
-2.22321	
-2.23694	
-2.24152	
-2.25067	
-2.29034	
-2.31781	
-2.33154	
-2.33612	
-2.32849	
-2.31171	
-2.2995	
-2.2934	
-2.28729	
-2.27051	
-2.2583	
-2.23389	
-2.23236	
-2.21405	
-2.24152	
-2.28729	
-2.31781	
-2.35748	
-2.36816	
-2.37427	
-2.36816	
-2.35443	
-2.34528	
-2.35443	
-2.34528	
-2.33002	
-2.32849	
-2.2995	
-2.26746	
-2.24762	
-2.23999	
-2.24762	
-2.24457	
-2.24304	
-2.23083	
-2.21252	
-2.19879	
-2.18201	
-2.18048	
-2.17133	
-2.16827	
-2.17133	
-2.16522	
-2.18353	
-2.21252	
-2.23389	
-2.24762	
-2.25067	
-2.24304	
-2.23083	
-2.22473	
-2.22321	
-2.2171	
-2.211	
-2.23846	
-2.27356	
-2.28729	
-2.2995	
-2.30408	
-2.29645	
-2.28729	
-2.26898	
-2.25372	
-2.23389	
-2.22778	
-2.22626	
-2.26593	
-2.30865	
-2.31476	
-2.30865	
-2.2934	
-2.29492	
-2.29492	
-2.28882	
-2.2644	
-2.24762	
-2.24304	
-2.23999	
-2.24152	
-2.23236	
-2.22321	
-2.24457	
-2.25067	
-2.26593	
-2.27356	
-2.28119	
-2.27661	
-2.27203	
-2.25983	
-2.25677	
-2.25372	
-2.2583	
-2.25372	
-2.24762	
-2.24152	
-2.24915	
-2.2644	
-2.29187	
-2.32849	
-2.3407	
-2.3407	
-2.33307	
-2.31781	
-2.3056	
-2.29034	
-2.26898	
-2.24609	
-2.23083	
-2.23694	
-2.23236	
-2.22321	
-2.21558	
-2.21558	
-2.21558	
-2.23389	
-2.25372	
-2.25525	
-2.26898	
-2.29645	
-2.32849	
-2.3468	
-2.35291	
-2.33765	
-2.33154	
-2.32086	
-2.30713	
-2.2995	
-2.27356	
-2.24762	
-2.22931	
-2.20337	
-2.19727	
-2.19421	
-2.19116	
-2.19574	
-2.19421	
-2.211	
-2.22473	
-2.22931	
-2.24304	
-2.24915	
-2.24152	
-2.23846	
-2.25525	
-2.27814	
-2.29645	
-2.2995	
-2.30255	
-2.30408	
-2.30713	
-2.32697	
-2.34222	
-2.36969	
-2.388	
-2.39105	
-2.39105	
-2.37732	
-2.36969	
-2.35748	
-2.34222	
-2.33765	
-2.32849	
-2.30408	
-2.28577	
-2.27051	
-2.24609	
-2.21863	
-2.19727	
-2.19879	
-2.22778	
-2.23999	
-2.23236	
-2.22626	
-2.23389	
-2.24152	
-2.24457	
-2.25067	
-2.25983	
-2.27203	
-2.27966	
-2.27661	
-2.26593	
-2.2583	
-2.25677	
-2.25983	
-2.24762	
-2.24457	
-2.24457	
-2.24304	
-2.25525	
-2.25372	
-2.25372	
-2.24915	
-2.23846	
-2.24609	
-2.25525	
-2.25372	
-2.25372	
-2.26288	
-2.26898	
-2.28729	
-2.30408	
-2.31018	
-2.3056	
-2.30408	
-2.2934	
-2.2995	
-2.29797	
-2.29034	
-2.2934	
-2.28729	
-2.27966	
-2.30408	
-2.31934	
-2.30713	
-2.2995	
-2.28882	
-2.28882	
-2.27661	
-2.26288	
-2.25983	
-2.2583	
-2.25983	
-2.25372	
-2.23999	
-2.24152	
-2.25372	
-2.25067	
-2.24915	
-2.24304	
-2.23694	
-2.23846	
-2.23999	
-2.23694	
-2.23541	
-2.24152	
-2.25983	
-2.27203	
-2.27051	
-2.27814	
-2.29492	
-2.32239	
-2.3407	
-2.35596	
-2.36511	
-2.388	
-2.40631	
-2.40173	
-2.3941	
-2.37427	
-2.36206	
-2.35138	
-2.33612	
-2.31018	
-2.28577	
-2.26135	
-2.23999	
-2.211	
-2.19269	
-2.18811	
-2.17743	
-2.18048	
-2.18506	
-2.18048	
-2.18658	
-2.20184	
-2.20642	
-2.20642	
-2.21405	
-2.20947	
-2.22473	
-2.23236	
-2.25677	
-2.29187	
-2.31934	
-2.33765	
-2.34528	
-2.35138	
-2.35748	
-2.36664	
-2.35748	
-2.34528	
-2.32544	
-2.31781	
-2.28882	
-2.27051	
-2.24304	
-2.24457	
-2.24457	
-2.25983	
-2.2934	
-2.30865	
-2.31018	
-2.30865	
-2.31323	
-2.3056	
-2.27966	
-2.2644	
-2.24762	
-2.24762	
-2.24609	
-2.25067	
-2.25677	
-2.2934	
-2.3056	
-2.30713	
-2.31781	
-2.32086	
-2.33002	
-2.31934	
-2.29797	
-2.27661	
-2.26898	
-2.26288	
-2.25372	
-2.24762	
-2.24457	
-2.24457	
-2.25677	
-2.25983	
-2.26135	
-2.25525	
-2.25525	
-2.25372	
-2.26746	
-2.28577	
-2.30255	
-2.30408	
-2.31476	
-2.31018	
-2.30103	
-2.29492	
-2.30255	
-2.2995	
-2.31171	
-2.33154	
-2.32697	
-2.3056	
-2.28729	
-2.27051	
-2.25372	
-2.24152	
-2.22321	
-2.20947	
-2.20184	
-2.19421	
-2.18658	
-2.19574	
-2.211	
-2.22473	
-2.24304	
-2.28271	
-2.30103	
-2.31476	
-2.31781	
-2.31323	
-2.32697	
-2.33002	
-2.32239	
-2.32239	
-2.30713	
-2.2995	
-2.28882	
-2.27356	
-2.27814	
-2.30408	
-2.31934	
-2.32697	
-2.32697	
-2.32697	
-2.33002	
-2.32697	
-2.32086	
-2.30865	
-2.30865	
-2.30408	
-2.28729	
-2.27814	
-2.28271	
-2.25525	
-2.23846	
-2.22931	
-2.22015	
-2.23999	
-2.26746	
-2.27814	
-2.28729	
-2.30865	
-2.31781	
-2.32391	
-2.32086	
-2.31323	
-2.31781	
-2.31018	
-2.2995	
-2.28119	
-2.28729	
-2.29187	
-2.28577	
-2.26593	
-2.25067	
-2.24304	
-2.23541	
-2.23389	
-2.23389	
-2.23846	
-2.23541	
-2.23846	
-2.25067	
-2.27203	
-2.29797	
-2.30103	
-2.32086	
-2.32544	
-2.31934	
-2.31018	
-2.30408	
-2.29187	
-2.28271	
-2.2644	
-2.24152	
-2.23694	
-2.23236	
-2.22473	
-2.21863	
-2.22321	
-2.23846	
-2.25677	
-2.27051	
-2.28271	
-2.29797	
-2.30255	
-2.31018	
-2.32239	
-2.31323	
-2.31476	
-2.31018	
-2.30103	
-2.28119	
-2.27203	
-2.2644	
-2.27356	
-2.27814	
-2.27509	
-2.27356	
-2.29034	
-2.33002	
-2.34375	
-2.33612	
-2.32849	
-2.32391	
-2.32544	
-2.32239	
-2.31476	
-2.30713	
-2.28882	
-2.26898	
-2.24457	
-2.23694	
-2.23083	
-2.23236	
-2.24304	
-2.25525	
-2.24609	
-2.24762	
-2.24762	
-2.25067	
-2.25983	
-2.27203	
-2.28577	
-2.28577	
-2.29645	
-2.29797	
-2.29034	
-2.3056	
-2.30865	
-2.30865	
-2.31476	
-2.32697	
-2.31171	
-2.30713	
-2.29492	
-2.26746	
-2.26288	
-2.25677	
-2.27661	
-2.27966	
-2.28577	
-2.27203	
-2.26746	
-2.28271	
-2.28729	
-2.27814	
-2.27509	
-2.27661	
-2.27203	
-2.26593	
-2.25067	
-2.24762	
-2.26746	
-2.28729	
-2.29492	
-2.33154	
-2.35138	
-2.36511	
-2.36816	
-2.36816	
-2.36359	
-2.34375	
-2.32086	
-2.28729	
-2.26898	
-2.24457	
-2.22626	
-2.22626	
-2.22015	
-2.2171	
-2.20795	
-2.20947	
-2.21863	
-2.24304	
-2.2583	
-2.26746	
-2.27966	
-2.30865	
-2.31018	
-2.32239	
-2.34528	
-2.35596	
-2.3468	
-2.33612	
-2.34375	
-2.3407	
-2.33307	
-2.32391	
-2.3056	
-2.28882	
-2.28729	
-2.27356	
-2.2583	
-2.23846	
-2.22931	
-2.22473	
-2.23999	
-2.25525	
-2.25983	
-2.27051	
-2.27814	
-2.28577	
-2.28577	
-2.27966	
-2.27509	
-2.27509	
-2.27814	
-2.27966	
-2.27814	
-2.29187	
-2.31018	
-2.30865	
-2.30408	
-2.2995	
-2.29797	
-2.29187	
-2.28271	
-2.27356	
-2.27966	
-2.28577	
-2.28271	
-2.28271	
-2.28119	
-2.2934	
-2.29797	
-2.30408	
-2.29645	
-2.28882	
-2.27661	
-2.27661	
-2.27051	
-2.25983	
-2.26593	
-2.29645	
-2.30408	
-2.30408	
-2.30713	
-2.2995	
-2.29797	
-2.2934	
-2.2995	
-2.29645	
-2.29034	
-2.27509	
-2.26746	
-2.26135	
-2.25067	
-2.24609	
-2.2583	
-2.2583	
-2.25067	
-2.25525	
-2.27509	
-2.32239	
-2.41547	
-2.49023	
-2.50854	
-2.49634	
-2.48718	
-2.4704	
-2.43378	
-2.38342	
-2.34222	
-2.30713	
-2.27203	
-2.23541	
-2.19421	
-2.1637	
-2.13928	
-2.15149	
-2.1698	
-2.19421	
-2.20032	
-2.20337	
-2.21252	
-2.22321	
-2.21863	
-2.22473	
-2.22778	
-2.23389	
-2.22931	
-2.24152	
-2.25067	
-2.2644	
-2.26135	
-2.2644	
-2.28119	
-2.29492	
-2.32239	
-2.32544	
-2.32849	
-2.33154	
-2.32391	
-2.32086	
-2.32544	
-2.31934	
-2.31323	
-2.30408	
-2.29187	
-2.26898	
-2.25067	
-2.25983	
-2.2583	
-2.26135	
-2.25983	
-2.26288	
-2.25677	
-2.25372	
-2.2644	
-2.27966	
-2.30103	
-2.31934	
-2.34985	
-2.36511	
-2.36664	
-2.35596	
-2.34222	
-2.33002	
-2.31476	
-2.29645	
-2.28577	
-2.27509	
-2.26135	
-2.24304	
-2.22778	
-2.22473	
-2.22778	
-2.23389	
-2.23999	
-2.24609	
-2.25067	
-2.27051	
-2.29187	
-2.30103	
-2.30103	
-2.32086	
-2.33612	
-2.32544	
-2.32239	
-2.31323	
-2.31476	
-2.31171	
-2.3056	
-2.30408	
-2.3056	
-2.30408	
-2.30255	
-2.29645	
-2.31476	
-2.32391	
-2.31934	
-2.33612	
-2.3468	
-2.34985	
-2.33154	
-2.3056	
-2.28882	
-2.26593	
-2.23694	
-2.21558	
-2.21405	
-2.20795	
-2.20642	
-2.2049	
-2.21863	
-2.22778	
-2.22626	
-2.23389	
-2.26135	
-2.27509	
-2.27966	
-2.28119	
-2.28119	
-2.27966	
-2.27661	
-2.27966	
-2.27356	
-2.26746	
-2.26746	
-2.26593	
-2.26593	
-2.27356	
-2.27661	
-2.28729	
-2.2995	
-2.30103	
-2.3056	
-2.3056	
-2.32239	
-2.33765	
-2.3468	
-2.35138	
-2.36969	
-2.37274	
-2.37427	
-2.36206	
-2.35291	
-2.34985	
-2.32697	
-2.30255	
-2.27814	
-2.2644	
-2.25525	
-2.25372	
-2.24915	
-2.24915	
-2.25525	
-2.24762	
-2.24152	
-2.23541	
-2.23236	
-2.23541	
-2.24457	
-2.24457	
-2.24762	
-2.24915	
-2.2583	
-2.27356	
-2.28271	
-2.29492	
-2.30255	
-2.31171	
-2.33002	
-2.34222	
-2.33612	
-2.33002	
-2.32086	
-2.31476	
-2.33002	
-2.36053	
-2.37885	
-2.3941	
-2.39105	
-2.38647	
-2.36969	
-2.34985	
-2.32544	
-2.2995	
-2.26898	
-2.24915	
-2.23541	
-2.21863	
-2.2171	
-2.20947	
-2.20032	
-2.19727	
-2.20184	
-2.20642	
-2.21405	
-2.22626	
-2.22778	
-2.23999	
-2.24457	
-2.25677	
-2.2644	
-2.27203	
-2.28271	
-2.28882	
-2.28882	
-2.28729	
-2.27966	
-2.28882	
-2.28882	
-2.27814	
-2.28577	
-2.28271	
-2.28271	
-2.28271	
-2.28577	
-2.28882	
-2.28119	
-2.27661	
-2.27661	
-2.27814	
-2.28119	
-2.29645	
-2.29492	
-2.28882	
-2.29797	
-2.31171	
-2.32697	
-2.33917	
-2.3407	
-2.34985	
-2.36053	
-2.35138	
-2.33459	
-2.31476	
-2.29034	
-2.26593	
-2.24152	
-2.23389	
-2.23694	
-2.24457	
-2.24762	
-2.26288	
-2.26898	
-2.26898	
-2.27356	
-2.2644	
-2.25983	
-2.25372	
-2.25983	
-2.27661	
-2.28577	
-2.28729	
-2.28271	
-2.28119	
-2.29034	
-2.29492	
-2.29034	
-2.28271	
-2.27814	
-2.28729	
-2.28577	
-2.27966	
-2.28119	
-2.27509	
-2.26746	
-2.26135	
-2.25983	
-2.2583	
-2.26135	
-2.27356	
-2.27203	
-2.27509	
-2.27661	
-2.27814	
-2.27966	
-2.29034	
-2.2995	
-2.31018	
-2.31476	
-2.31934	
-2.32697	
-2.33459	
-2.35443	
-2.37122	
-2.38647	
-2.38953	
-2.37427	
-2.35291	
-2.33002	
-2.30865	
-2.29187	
-2.26135	
-2.23846	
-2.22931	
-2.211	
-2.20032	
-2.19574	
-2.20184	
-2.20337	
-2.21405	
-2.23694	
-2.25983	
-2.27203	
-2.27814	
-2.27509	
-2.26593	
-2.25983	
-2.25372	
-2.24915	
-2.25067	
-2.25677	
-2.25983	
-2.25677	
-2.26746	
-2.27814	
-2.30713	
-2.33154	
-2.34375	
-2.33307	
-2.33002	
-2.32239	
-2.32086	
-2.30865	
-2.29797	
-2.27814	
-2.26746	
-2.25372	
-2.23999	
-2.23236	
-2.21558	
-2.21252	
-2.22931	
-2.23389	
-2.24304	
-2.24457	
-2.26288	
-2.26898	
-2.27509	
-2.28729	
-2.3056	
-2.31171	
-2.31781	
-2.32239	
-2.33612	
-2.33765	
-2.32849	
-2.32697	
-2.32391	
-2.32391	
-2.31934	
-2.31171	
-2.30408	
-2.2995	
-2.2934	
-2.28577	
-2.27966	
-2.26593	
-2.26593	
-2.27051	
-2.27509	
-2.28729	
-2.30713	
-2.34375	
-2.36511	
-2.37274	
-2.36359	
-2.34528	
-2.32239	
-2.30408	
-2.2934	
-2.28119	
-2.27356	
-2.25677	
-2.24304	
-2.23236	
-2.22321	
-2.21405	
-2.21252	
-2.20184	
-2.20337	
-2.20947	
-2.20642	
-2.21863	
-2.22931	
-2.24457	
-2.26135	
-2.28119	
-2.29187	
-2.28882	
-2.28577	
-2.28577	
-2.29645	
-2.29187	
-2.28119	
-2.28119	
-2.27661	
-2.26593	
-2.27051	
-2.27509	
-2.28271	
-2.27814	
-2.27814	
-2.27661	
-2.27814	
-2.27203	
-2.27814	
-2.29034	
-2.29187	
-2.28882	
-2.28729	
-2.27966	
-2.27661	
-2.28729	
-2.28577	
-2.27966	
-2.26898	
-2.2644	
-2.2644	
-2.26898	
-2.27203	
-2.26898	
-2.26746	
-2.27509	
-2.29034	
-2.2995	
-2.30103	
-2.2995	
-2.30255	
-2.2934	
-2.28729	
-2.28119	
-2.27509	
-2.26898	
-2.26288	
-2.26135	
-2.26135	
-2.25983	
-2.26288	
-2.26746	
-2.26746	
-2.26746	
-2.27203	
-2.28119	
-2.29492	
-2.30103	
-2.3056	
-2.31934	
-2.32239	
-2.32544	
-2.33307	
-2.33154	
-2.32239	
-2.31476	
-2.29187	
-2.27661	
-2.2583	
-2.24915	
-2.23999	
-2.23541	
-2.23541	
-2.23999	
-2.23694	
-2.24304	
-2.24457	
-2.24152	
-2.23694	
-2.25677	
-2.27051	
-2.27509	
-2.28882	
-2.28271	
-2.28577	
-2.28271	
-2.28882	
-2.28271	
-2.27661	
-2.26898	
-2.26898	
-2.27051	
-2.26746	
-2.26898	
-2.26898	
-2.26746	
-2.27203	
-2.27661	
-2.27356	
-2.27356	
-2.27509	
-2.27814	
-2.27814	
-2.28271	
-2.28577	
-2.27966	
-2.28119	
-2.27509	
-2.27509	
-2.27509	
-2.28119	
-2.28577	
-2.28119	
-2.29187	
-2.30408	
-2.30713	
-2.31323	
-2.32086	
-2.32697	
-2.32849	
-2.33002	
-2.31781	
-2.3056	
-2.29797	
-2.28882	
-2.26898	
-2.25983	
-2.25067	
-2.24152	
-2.23236	
-2.23083	
-2.24609	
-2.27814	
-2.29492	
-2.31018	
-2.31018	
-2.31171	
-2.30103	
-2.29187	
-2.27966	
-2.29645	
-2.29034	
-2.27356	
-2.26135	
-2.25067	
-2.24609	
-2.23846	
-2.24457	
-2.25067	
-2.24762	
-2.24609	
-2.26593	
-2.27661	
-2.29645	
-2.30865	
-2.31781	
-2.32544	
-2.32697	
-2.31781	
-2.31018	
-2.30103	
-2.29645	
-2.29645	
-2.29187	
-2.27966	
-2.26593	
-2.2583	
-2.25372	
-2.25067	
-2.24609	
-2.24304	
-2.24304	
-2.24762	
-2.26746	
-2.27509	
-2.27966	
-2.27814	
-2.28119	
-2.28577	
-2.28882	
-2.2934	
-2.2934	
-2.30255	
-2.30865	
-2.31781	
-2.32239	
-2.32391	
-2.31171	
-2.29645	
-2.28729	
-2.27203	
-2.26135	
-2.24915	
-2.23999	
-2.22931	
-2.23236	
-2.22473	
-2.22015	
-2.22321	
-2.22931	
-2.23999	
-2.24762	
-2.25677	
-2.25677	
-2.25677	
-2.25983	
-2.2644	
-2.2644	
-2.28119	
-2.29187	
-2.30255	
-2.30255	
-2.30408	
-2.29797	
-2.29187	
-2.28119	
-2.27661	
-2.27509	
-2.26898	
-2.26746	
-2.26135	
-2.2583	
-2.25372	
-2.26288	
-2.24915	
-2.2583	
-2.26746	
-2.27814	
-2.28882	
-2.29797	
-2.29492	
-2.29645	
-2.2995	
-2.30103	
-2.3056	
-2.3056	
-2.29492	
-2.29492	
-2.30713	
-2.29645	
-2.28882	
-2.27051	
-2.2583	
-2.26288	
-2.26593	
-2.27051	
-2.27356	
-2.27356	
-2.27661	
-2.27661	
-2.27814	
-2.27356	
-2.27356	
-2.26898	
-2.26288	
-2.2644	
-2.26898	
-2.2644	
-2.25525	
-2.25372	
-2.25983	
-2.25983	
-2.26746	
-2.27661	
-2.29034	
-2.30865	
-2.31781	
-2.31934	
-2.31934	
-2.32086	
-2.31171	
-2.30713	
-2.30103	
-2.30408	
-2.29187	
-2.29034	
-2.30865	
-2.32239	
-2.33154	
-2.34222	
-2.33459	
-2.31476	
-2.2995	
-2.29492	
-2.29645	
-2.27051	
-2.24152	
-2.23236	
-2.22015	
-2.21863	
-2.21863	
-2.22015	
-2.22778	
-2.23083	
-2.22778	
-2.22321	
-2.22015	
-2.21863	
-2.22931	
-2.23999	
-2.24915	
-2.26593	
-2.26898	
-2.26746	
-2.27661	
-2.28729	
-2.29492	
-2.2934	
-2.29187	
-2.29492	
-2.30255	
-2.31018	
-2.3056	
-2.29187	
-2.28271	
-2.26746	
-2.27509	
-2.2934	
-2.2934	
-2.28729	
-2.27051	
-2.27814	
-2.28119	
-2.27661	
-2.27203	
-2.26898	
-2.25983	
-2.25677	
-2.25983	
-2.25525	
-2.2583	
-2.26135	
-2.26898	
-2.27356	
-2.27966	
-2.27814	
-2.28729	
-2.30408	
-2.32391	
-2.33154	
-2.3407	
-2.33765	
-2.33612	
-2.33612	
-2.33307	
-2.33002	
-2.32849	
-2.32086	
-2.30865	
-2.29797	
-2.27814	
-2.26135	
-2.24915	
-2.22931	
-2.22015	
-2.21558	
-2.211	
-2.21558	
-2.22778	
-2.23694	
-2.24762	
-2.25525	
-2.25067	
-2.25525	
-2.26288	
-2.26746	
-2.26898	
-2.27814	
-2.27966	
-2.28882	
-2.28271	
-2.27966	
-2.27661	
-2.27203	
-2.26288	
-2.26593	
-2.26746	
-2.27051	
-2.27051	
-2.26135	
-2.25983	
-2.24762	
-2.25525	
-2.25525	
-2.2583	
-2.25525	
-2.25677	
-2.26593	
-2.26746	
-2.27661	
-2.28729	
-2.28271	
-2.27814	
-2.28271	
-2.29187	
-2.29645	
-2.29187	
-2.29034	
-2.29034	
-2.28577	
-2.28119	
-2.27966	
-2.27966	
-2.28729	
-2.28271	
-2.27661	
-2.27814	
-2.27203	
-2.26746	
-2.26135	
-2.25525	
-2.26746	
-2.28119	
-2.30255	
-2.31934	
-2.33154	
-2.33612	
-2.33002	
-2.31323	
-2.30103	
-2.29187	
-2.28729	
-2.27966	
-2.26898	
-2.25067	
-2.24915	
-2.25067	
-2.25372	
-2.26288	
-2.25677	
-2.2583	
-2.2583	
-2.26135	
-2.2583	
-2.2583	
-2.2583	
-2.26288	
-2.26288	
-2.26135	
-2.26288	
-2.27051	
-2.26746	
-2.27051	
-2.28119	
-2.29797	
-2.30103	
-2.29797	
-2.3056	
-2.30255	
-2.30103	
-2.28882	
-2.2934	
-2.29492	
-2.29492	
-2.28882	
-2.28729	
-2.27966	
-2.2644	
-2.25983	
-2.25525	
-2.24609	
-2.24609	
-2.25525	
-2.26288	
-2.2644	
-2.27661	
-2.28729	
-2.28882	
-2.29034	
-2.28729	
-2.28577	
-2.28729	
-2.28119	
-2.27814	
-2.27509	
-2.27814	
-2.27814	
-2.27509	
-2.26898	
-2.25677	
-2.2644	
-2.27051	
-2.27814	
-2.27966	
-2.27814	
-2.27051	
-2.26898	
-2.26593	
-2.2644	
-2.2644	
-2.25525	
-2.25525	
-2.24915	
-2.25372	
-2.25067	
-2.25525	
-2.25372	
-2.24915	
-2.25067	
-2.24762	
-2.24304	
-2.24915	
-2.25067	
-2.25372	
-2.25067	
-2.25372	
-2.26135	
-2.26593	
-2.27051	
-2.27203	
-2.27203	
-2.26898	
-2.27356	
-2.27814	
-2.27966	
-2.28271	
-2.27814	
-2.28271	
-2.27814	
-2.28119	
-2.28577	
-2.28882	
-2.29034	
-2.29492	
-2.28882	
-2.28271	
-2.28119	
-2.28119	
-2.28577	
-2.2934	
-2.31018	
-2.33917	
-2.35596	
-2.35596	
-2.3407	
-2.33002	
-2.31323	
-2.30255	
-2.28882	
-2.27356	
-2.27814	
-2.27203	
-2.25983	
-2.24609	
-2.24304	
-2.24457	
-2.24609	
-2.24762	
-2.24609	
-2.24457	
-2.24762	
-2.24762	
-2.24609	
-2.24609	
-2.24304	
-2.23389	
-2.23541	
-2.25067	
-2.26288	
-2.27509	
-2.27814	
-2.28729	
-2.29645	
-2.30255	
-2.31018	
-2.31018	
-2.31018	
-2.30865	
-2.30103	
-2.30103	
-2.2995	
-2.2995	
-2.31171	
-2.30713	
-2.29645	
-2.28577	
-2.27203	
-2.26746	
-2.26898	
-2.26288	
-2.25983	
-2.24915	
-2.24915	
-2.23999	
-2.23999	
-2.23694	
-2.23999	
-2.24304	
-2.23846	
-2.24152	
-2.24304	
-2.23846	
-2.24152	
-2.24915	
-2.26135	
-2.2644	
-2.26593	
-2.27356	
-2.27509	
-2.27203	
-2.27203	
-2.27814	
-2.27814	
-2.27051	
-2.27661	
-2.27356	
-2.28119	
-2.28271	
-2.28119	
-2.27966	
-2.27966	
-2.27966	
-2.28729	
-2.29187	
-2.28271	
-2.29492	
-2.2934	
-2.29645	
-2.29034	
-2.28882	
-2.28882	
-2.28882	
-2.29034	
-2.29492	
-2.2995	
-2.29492	
-2.29645	
-2.29492	
-2.2934	
-2.29034	
-2.28882	
-2.28119	
-2.28577	
-2.27966	
-2.27661	
-2.27203	
-2.26746	
-2.26288	
-2.25677	
-2.2583	
-2.25983	
-2.25983	
-2.26135	
-2.27051	
-2.26898	
-2.27814	
-2.28119	
-2.28119	
-2.27814	
-2.27509	
-2.2644	
-2.26288	
-2.25677	
-2.2583	
-2.26135	
-2.26135	
-2.26746	
-2.2644	
-2.26593	
-2.26898	
-2.27203	
-2.27356	
-2.27051	
-2.28271	
-2.29034	
-2.30713	
-2.30103	
-2.30408	
-2.30255	
-2.29645	
-2.29797	
-2.29492	
-2.2934	
-2.2934	
-2.28271	
-2.27966	
-2.27356	
-2.27203	
-2.27051	
-2.26898	
-2.26746	
-2.26135	
-2.26135	
-2.25677	
-2.25525	
-2.25983	
-2.26288	
-2.27661	
-2.29187	
-2.30713	
-2.31934	
-2.32391	
-2.31476	
-2.31323	
-2.30408	
-2.30713	
-2.29645	
-2.28729	
-2.28271	
-2.27814	
-2.27051	
-2.25983	
-2.25525	
-2.24762	
-2.25677	
-2.25677	
-2.2644	
-2.25983	
-2.25067	
-2.24304	
-2.24609	
-2.25372	
-2.26898	
-2.27356	
-2.28577	
-2.29034	
-2.28577	
-2.28882	
-2.28577	
-2.27814	
-2.27509	
-2.27356	
-2.26898	
-2.26746	
-2.25983	
-2.25983	
-2.2583	
-2.25372	
-2.25372	
-2.25372	
-2.2583	
-2.26135	
-2.2583	
-2.26135	
-2.2644	
-2.2644	
-2.2644	
-2.26135	
-2.26288	
-2.26135	
-2.27051	
-2.27051	
-2.27966	
-2.27814	
-2.27356	
-2.28119	
-2.28882	
-2.28729	
-2.28729	
-2.29034	
-2.29187	
-2.28882	
-2.27814	
-2.27356	
-2.27509	
-2.27356	
-2.27509	
-2.26593	
-2.2644	
-2.27051	
-2.27356	
-2.27814	
-2.27661	
-2.27509	
-2.27814	
-2.28119	
-2.27356	
-2.27051	
-2.26593	
-2.27356	
-2.27661	
-2.27814	
-2.27356	
-2.27661	
-2.26746	
-2.26898	
-2.27814	
-2.28271	
-2.2934	
-2.2995	
-2.30103	
-2.31781	
-2.33459	
-2.32849	
-2.32697	
-2.32239	
-2.31323	
-2.30865	
-2.29034	
-2.28119	
-2.27203	
-2.2583	
-2.24762	
-2.24152	
-2.24152	
-2.23541	
-2.23236	
-2.22626	
-2.23541	
-2.24762	
-2.27203	
-2.2995	
-2.31323	
-2.32544	
-2.31781	
-2.30713	
-2.3056	
-2.30255	
-2.28882	
-2.27051	
-2.2644	
-2.25983	
-2.24915	
-2.23846	
-2.23236	
-2.23846	
-2.23541	
-2.23694	
-2.23541	
-2.23999	
-2.24304	
-2.24915	
-2.2583	
-2.26898	
-2.27203	
-2.27661	
-2.28271	
-2.2934	
-2.2934	
-2.29492	
-2.29645	
-2.2934	
-2.2934	
-2.28271	
-2.27966	
-2.26898	
-2.25983	
-2.25677	
-2.24762	
-2.25067	
-2.26135	
-2.2583	
-2.25372	
-2.25983	
-2.27356	
-2.27661	
-2.27509	
-2.27966	
-2.27966	
-2.27356	
-2.26898	
-2.26288	
-2.25983	
-2.25677	
-2.26593	
-2.26898	
-2.27661	
-2.27509	
-2.27051	
-2.27203	
-2.27203	
-2.27203	
-2.26288	
-2.26135	
-2.27814	
-2.29797	
-2.3056	
-2.32086	
-2.32086	
-2.31171	
-2.3056	
-2.30255	
-2.30103	
-2.2934	
-2.27814	
-2.27356	
-2.26898	
-2.2583	
-2.2583	
-2.2583	
-2.25525	
-2.25677	
-2.26135	
-2.27051	
-2.27051	
-2.27203	
-2.27051	
-2.26898	
-2.27661	
-2.28577	
-2.28577	
-2.27966	
-2.27203	
-2.27051	
-2.2644	
-2.25983	
-2.2583	
-2.26135	
-2.25372	
-2.25677	
-2.2583	
-2.25525	
-2.25983	
-2.24762	
-2.25525	
-2.25677	
-2.26593	
-2.26746	
-2.26288	
-2.27203	
-2.27966	
-2.29645	
-2.30255	
-2.30255	
-2.30103	
-2.3056	
-2.30103	
-2.3056	
-2.29797	
-2.29187	
-2.29187	
-2.2934	
-2.28882	
-2.27966	
-2.27203	
-2.26898	
-2.27203	
-2.27661	
-2.28882	
-2.29034	
-2.28882	
-2.29645	
-2.29797	
-2.29034	
-2.28271	
-2.27509	
-2.26746	
-2.26135	
-2.25525	
-2.24762	
-2.25677	
-2.24915	
-2.25983	
-2.26135	
-2.26746	
-2.29034	
-2.29797	
-2.31018	
-2.31018	
-2.30713	
-2.30255	
-2.30408	
-2.29645	
-2.28729	
-2.28577	
-2.28119	
-2.28119	
-2.27051	
-2.25372	
-2.24915	
-2.24152	
-2.24152	
-2.24457	
-2.24304	
-2.23846	
-2.24915	
-2.25372	
-2.25372	
-2.25677	
-2.25983	
-2.26135	
-2.25983	
-2.2583	
-2.27051	
-2.27203	
-2.28882	
-2.2995	
-2.31018	
-2.32086	
-2.32544	
-2.32697	
-2.31934	
-2.31476	
-2.31171	
-2.30713	
-2.2995	
-2.29034	
-2.29492	
-2.29645	
-2.29187	
-2.28271	
-2.27509	
-2.27509	
-2.27356	
-2.28882	
-2.29492	
-2.29187	
-2.28729	
-2.28729	
-2.26746	
-2.2583	
-2.26135	
-2.25677	
-2.24762	
-2.25372	
-2.25372	
-2.25067	
-2.24457	
-2.24457	
-2.24609	
-2.24915	
-2.25372	
-2.2583	
-2.26135	
-2.2583	
-2.26288	
-2.2583	
-2.26135	
-2.26746	
-2.27203	
-2.26898	
-2.26898	
-2.28119	
-2.29645	
-2.29797	
-2.29645	
-2.30103	
-2.2995	
-2.29645	
-2.28577	
-2.28577	
-2.27356	
-2.27509	
-2.27509	
-2.28271	
-2.27814	
-2.28119	
-2.29645	
-2.30255	
-2.30408	
-2.31781	
-2.30865	
-2.29645	
-2.29492	
-2.2995	
-2.29797	
-2.2934	
-2.28271	
-2.27051	
-2.26135	
-2.25525	
-2.24762	
-2.24152	
-2.23694	
-2.23694	
-2.24915	
-2.26746	
-2.27051	
-2.27356	
-2.27661	
-2.27509	
-2.29492	
-2.31018	
-2.31476	
-2.31171	
-2.31323	
-2.3056	
-2.2995	
-2.29492	
-2.29492	
-2.29187	
-2.29187	
-2.27966	
-2.27661	
-2.26898	
-2.25677	
-2.24915	
-2.23541	
-2.23236	
-2.23236	
-2.23083	
-2.23541	
-2.23541	
-2.24304	
-2.24762	
-2.24915	
-2.25067	
-2.26135	
-2.27814	
-2.29034	
-2.29797	
-2.30408	
-2.31171	
-2.31934	
-2.31781	
-2.31934	
-2.31476	
-2.30408	
-2.2995	
-2.29187	
-2.27661	
-2.26898	
-2.25067	
-2.24304	
-2.23541	
-2.24304	
-2.24609	
-2.24609	
-2.25067	
-2.25983	
-2.25983	
-2.27051	
-2.27661	
-2.28271	
-2.27966	
-2.28577	
-2.28119	
-2.27814	
-2.27051	
-2.26288	
-2.28271	
-2.29645	
-2.31018	
-2.32239	
-2.33154	
-2.3407	
-2.33765	
-2.32697	
-2.31171	
-2.30713	
-2.29034	
-2.27051	
-2.27203	
-2.26288	
-2.2583	
-2.25525	
-2.25525	
-2.26135	
-2.25983	
-2.2583	
-2.26288	
-2.2583	
-2.24915	
-2.24762	
-2.24152	
-2.24609	
-2.25067	
-2.24915	
-2.24915	
-2.24304	
-2.24457	
-2.25067	
-2.25372	
-2.2583	
-2.26746	
-2.27203	
-2.28119	
-2.27966	
-2.28271	
-2.2934	
-2.30408	
-2.31171	
-2.31018	
-2.30713	
-2.30255	
-2.2995	
-2.2934	
-2.28882	
-2.27814	
-2.26898	
-2.26746	
-2.25983	
-2.25983	
-2.26593	
-2.26898	
-2.27661	
-2.28577	
-2.29187	
-2.29187	
-2.29187	
-2.2934	
-2.30103	
-2.29492	
-2.28729	
-2.28271	
-2.27203	
-2.26288	
-2.26288	
-2.26135	
-2.25372	
-2.25525	
-2.25525	
-2.25677	
-2.25677	
-2.2583	
-2.26593	
-2.27966	
-2.29034	
-2.30103	
-2.3056	
-2.31476	
-2.3407	
-2.35138	
-2.35443	
-2.36053	
-2.35443	
-2.33917	
-2.33002	
-2.32239	
-2.31018	
-2.2934	
-2.27814	
-2.25983	
-2.24609	
-2.23541	
-2.23083	
-2.22321	
-2.21558	
-2.21558	
-2.21252	
-2.21558	
-2.22626	
-2.23083	
-2.22626	
-2.23083	
-2.23846	
-2.24457	
-2.25983	
-2.26135	
-2.25677	
-2.25525	
-2.26135	
-2.27356	
-2.28119	
-2.28882	
-2.2934	
-2.29492	
-2.30713	
-2.31323	
-2.31934	
-2.31476	
-2.31476	
-2.3056	
-2.29797	
-2.2995	
-2.29645	
-2.28729	
-2.28271	
-2.27356	
-2.27051	
-2.2644	
-2.25677	
-2.26746	
-2.27661	
-2.28271	
-2.28119	
-2.28882	
-2.29034	
-2.31323	
-2.32086	
-2.32239	
-2.32544	
-2.32239	
-2.31781	
-2.3056	
-2.29797	
-2.28119	
-2.26593	
-2.25525	
-2.24762	
-2.24152	
-2.23541	
-2.22931	
-2.22626	
-2.21863	
-2.2171	
-2.21863	
-2.22626	
-2.23846	
-2.24762	
-2.24915	
-2.26288	
-2.26288	
-2.26288	
-2.27051	
-2.28729	
-2.2934	
-2.29797	
-2.3056	
-2.31934	
-2.34222	
-2.33917	
-2.33459	
-2.33307	
-2.32391	
-2.30713	
-2.28729	
-2.27051	
-2.26135	
-2.24457	
-2.23846	
-2.23083	
-2.22778	
-2.23694	
-2.23999	
-2.25525	
-2.25983	
-2.25677	
-2.24915	
-2.25525	
-2.26135	
-2.26898	
-2.27661	
-2.27966	
-2.27966	
-2.28577	
-2.28882	
-2.28729	
-2.28729	
-2.28729	
-2.28119	
-2.27814	
-2.27356	
-2.27356	
-2.26898	
-2.27051	
-2.27661	
-2.27814	
-2.27509	
-2.27509	
-2.27814	
-2.27966	
-2.27966	
-2.28271	
-2.28882	
-2.28882	
-2.29034	
-2.2934	
-2.29797	
-2.29645	
-2.2934	
-2.28577	
-2.27966	
-2.27203	
-2.26288	
-2.25525	
-2.26288	
-2.25525	
-2.25067	
-2.2583	
-2.2583	
-2.25983	
-2.26135	
-2.2583	
-2.25983	
-2.25677	
-2.25983	
-2.25677	
-2.26135	
-2.28119	
-2.28882	
-2.2995	
-2.2995	
-2.29645	
-2.30103	
-2.32239	
-2.33459	
-2.33917	
-2.33307	
-2.32849	
-2.31476	
-2.30408	
-2.29492	
-2.28882	
-2.28119	
-2.27356	
-2.26898	
-2.25067	
-2.24762	
-2.24152	
-2.23694	
-2.23846	
-2.24152	
-2.23694	
-2.24152	
-2.24457	
-2.24915	
-2.25677	
-2.25983	
-2.2644	
-2.2644	
-2.26593	
-2.26593	
-2.2644	
-2.2644	
-2.26746	
-2.26746	
-2.27509	
-2.27661	
-2.28577	
-2.30255	
-2.30865	
-2.31171	
-2.31018	
-2.31476	
-2.31018	
-2.31781	
-2.31018	
-2.30408	
-2.29797	
-2.29187	
-2.28119	
-2.28271	
-2.28882	
-2.29797	
-2.31018	
-2.30865	
-2.31018	
-2.3056	
-2.30255	
-2.30103	
-2.29492	
-2.28271	
-2.26898	
-2.25525	
-2.24304	
-2.24457	
-2.24152	
-2.23694	
-2.23541	
-2.23846	
-2.23541	
-2.23083	
-2.23389	
-2.23999	
-2.24762	
-2.24762	
-2.25372	
-2.25677	
-2.25983	
-2.26135	
-2.26135	
-2.2644	
-2.2644	
-2.27509	
-2.28729	
-2.29187	
-2.29645	
-2.29492	
-2.30255	
-2.31323	
-2.33612	
-2.34375	
-2.33765	
-2.33307	
-2.33002	
-2.32544	
-2.31781	
-2.30408	
-2.29034	
-2.27661	
-2.27509	
-2.27356	
-2.27509	
-2.27203	
-2.2644	
-2.26288	
-2.26288	
-2.2583	
-2.25525	
-2.24915	
-2.25372	
-2.2583	
-2.25983	
-2.25983	
-2.25372	
-2.2583	
-2.2583	
-2.26746	
-2.26593	
-2.26288	
-2.2583	
-2.25525	
-2.25677	
-2.25372	
-2.2583	
-2.26135	
-2.26135	
-2.26288	
-2.26593	
-2.27814	
-2.28729	
-2.29187	
-2.2995	
-2.30713	
-2.32391	
-2.33154	
-2.33459	
-2.33612	
-2.32544	
-2.32391	
-2.31018	
-2.29187	
-2.27203	
-2.25372	
-2.23694	
-2.24304	
-2.23999	
-2.24304	
-2.25067	
-2.24609	
-2.24457	
-2.24152	
-2.24152	
-2.24609	
-2.25372	
-2.24609	
-2.24762	
-2.24915	
-2.25067	
-2.2583	
-2.26288	
-2.26593	
-2.27203	
-2.28577	
-2.28577	
-2.2995	
-2.30713	
-2.30865	
-2.32391	
-2.32544	
-2.32544	
-2.32849	
-2.31323	
-2.31781	
-2.31476	
-2.30713	
-2.2995	
-2.29797	
-2.2934	
-2.28729	
-2.27966	
-2.27814	
-2.27051	
-2.26746	
-2.2644	
-2.25983	
-2.26288	
-2.25983	
-2.25983	
-2.2644	
-2.26593	
-2.2583	
-2.25372	
-2.24915	
-2.24762	
-2.25525	
-2.25677	
-2.25983	
-2.25983	
-2.2583	
-2.2583	
-2.2583	
-2.2583	
-2.2644	
-2.27051	
-2.27509	
-2.28271	
-2.2934	
-2.29492	
-2.30255	
-2.3056	
-2.31781	
-2.32849	
-2.33307	
-2.33002	
-2.32697	
-2.32391	
-2.32544	
-2.31934	
-2.32086	
-2.32697	
-2.33002	
-2.33917	
-2.33765	
-2.33002	
-2.32086	
-2.30713	
-2.28729	
-2.27509	
-2.25525	
-2.24304	
-2.23999	
-2.23694	
-2.23389	
-2.23083	
-2.22778	
-2.23083	
-2.23694	
-2.23694	
-2.24609	
-2.24457	
-2.25372	
-2.25677	
-2.26288	
-2.27203	
-2.27356	
-2.27661	
-2.26898	
-2.26746	
-2.26288	
-2.27661	
-2.28119	
-2.28577	
-2.28882	
-2.29187	
-2.29492	
-2.28577	
-2.28271	
-2.28882	
-2.27966	
-2.27356	
-2.27051	
-2.27203	
-2.2644	
-2.26135	
-2.26288	
-2.2583	
-2.25525	
-2.25525	
-2.2644	
-2.28119	
-2.30103	
-2.30408	
-2.3056	
-2.3056	
-2.30713	
-2.30408	
-2.30103	
-2.30255	
-2.30255	
-2.29492	
-2.29492	
-2.28882	
-2.28119	
-2.27814	
-2.27203	
-2.27356	
-2.27203	
-2.26288	
-2.25677	
-2.25983	
-2.2644	
-2.26593	
-2.26898	
-2.27966	
-2.27814	
-2.27814	
-2.28271	
-2.28577	
-2.28271	
-2.29645	
-2.29797	
-2.30255	
-2.31018	
-2.31934	
-2.31476	
-2.31476	
-2.31171	
-2.30713	
-2.2995	
-2.29492	
-2.29492	
-2.28271	
-2.27203	
-2.26135	
-2.25983	
-2.25372	
-2.25067	
-2.24915	
-2.25372	
-2.25983	
-2.24762	
-2.25525	
-2.25983	
-2.2644	
-2.26593	
-2.27051	
-2.27203	
-2.27203	
-2.26898	
-2.28577	
-2.28882	
-2.29034	
-2.29645	
-2.30103	
-2.2934	
-2.29492	
-2.29797	
-2.30103	
-2.30255	
-2.29645	
-2.28882	
-2.27814	
-2.29034	
-2.30255	
-2.31171	
-2.31934	
-2.31781	
-2.32391	
-2.32544	
-2.32391	
-2.32239	
-2.31171	
-2.2995	
-2.28577	
-2.27051	
-2.25983	
-2.24304	
-2.23999	
-2.23541	
-2.22931	
-2.23083	
-2.23541	
-2.24152	
-2.24915	
-2.27051	
-2.27814	
-2.28729	
-2.29797	
-2.31171	
-2.32239	
-2.31476	
-2.31171	
-2.30103	
-2.29187	
-2.29187	
-2.28882	
-2.28271	
-2.28271	
-2.27814	
-2.27509	
-2.27051	
-2.2644	
-2.26593	
-2.26746	
-2.26746	
-2.26898	
-2.27661	
-2.28577	
-2.29034	
-2.28882	
-2.29645	
-2.29797	
-2.29492	
-2.29187	
-2.2934	
-2.29187	
-2.28729	
-2.29034	
-2.28271	
-2.28119	
-2.27509	
-2.27966	
-2.28119	
-2.28729	
-2.29187	
-2.29187	
-2.29492	
-2.29492	
-2.29034	
-2.28119	
-2.28119	
-2.29492	
-2.29797	
-2.2995	
-2.30103	
-2.29187	
-2.28271	
-2.27661	
-2.27051	
-2.2644	
-2.2644	
-2.2644	
-2.2644	
-2.26288	
-2.26746	
-2.28119	
-2.28729	
-2.30865	
-2.33154	
-2.35138	
-2.35443	
-2.34985	
-2.3468	
-2.33917	
-2.33307	
-2.32697	
-2.31781	
-2.29187	
-2.27661	
-2.2644	
-2.25525	
-2.24152	
-2.23389	
-2.23083	
-2.23694	
-2.24304	
-2.23694	
-2.24762	
-2.25983	
-2.27203	
-2.28577	
-2.27814	
-2.27356	
-2.27203	
-2.26746	
-2.27203	
-2.26593	
-2.2644	
-2.2583	
-2.2583	
-2.25983	
-2.2644	
-2.2644	
-2.26593	
-2.27814	
-2.27814	
-2.27814	
-2.27814	
-2.28271	
-2.28882	
-2.28577	
-2.28271	
-2.28119	
-2.28577	
-2.28119	
-2.2995	
-2.31171	
-2.31476	
-2.32086	
-2.31323	
-2.31171	
-2.30865	
-2.32391	
-2.32849	
-2.33154	
-2.32849	
-2.32391	
-2.31171	
-2.30408	
-2.29492	
-2.28577	
-2.27814	
-2.27051	
-2.26746	
-2.26898	
-2.26898	
-2.26898	
-2.27051	
-2.26898	
-2.27661	
-2.27661	
-2.27356	
-2.27051	
-2.27051	
-2.27051	
-2.27203	
-2.27203	
-2.27814	
-2.28577	
-2.28729	
-2.28729	
-2.28119	
-2.27661	
-2.27814	
-2.28271	
-2.29797	
-2.30865	
-2.31171	
-2.30865	
-2.30713	
-2.31476	
-2.31323	
-2.31476	
-2.31934	
-2.32086	
-2.32086	
-2.31018	
-2.30255	
-2.29187	
-2.28119	
-2.27661	
-2.27509	
-2.29187	
-2.29797	
-2.30408	
-2.31018	
-2.31781	
-2.30865	
-2.30103	
-2.29187	
-2.29034	
-2.29187	
-2.29187	
-2.29187	
-2.28577	
-2.27814	
-2.27356	
-2.27051	
-2.26593	
-2.2644	
-2.25677	
-2.25677	
-2.25372	
-2.25677	
-2.25525	
-2.26288	
-2.2644	
-2.26746	
-2.26746	
-2.27356	
-2.28577	
-2.29187	
-2.28729	
-2.28577	
-2.28577	
-2.28577	
-2.28577	
-2.28119	
-2.27661	
-2.27661	
-2.27509	
-2.26746	
-2.26593	
-2.27356	
-2.27051	
-2.28271	
-2.30255	
-2.32391	
-2.33459	
-2.33765	
-2.33917	
-2.34222	
-2.33307	
-2.32849	
-2.32086	
-2.31018	
-2.31323	
-2.30255	
-2.29797	
-2.28577	
-2.28119	
-2.28729	
-2.29492	
-2.29645	
-2.29492	
-2.29187	
-2.28271	
-2.29034	
-2.28577	
-2.28271	
-2.27509	
-2.27051	
-2.27051	
-2.26898	
-2.2644	
-2.2644	
-2.27051	
-2.27509	
-2.28271	
-2.28882	
-2.30103	
-2.31323	
-2.31476	
-2.31781	
-2.32239	
-2.31781	
-2.31781	
-2.31476	
-2.30255	
-2.2995	
-2.31018	
-2.31018	
-2.2995	
-2.29645	
-2.2934	
-2.29034	
-2.28271	
-2.28271	
-2.27661	
-2.27051	
-2.26135	
-2.25677	
-2.25372	
-2.24762	
-2.24915	
-2.2583	
-2.27051	
-2.27051	
-2.28119	
-2.28271	
-2.28729	
-2.29034	
-2.28882	
-2.29187	
-2.29797	
-2.29034	
-2.28729	
-2.28577	
-2.28119	
-2.28119	
-2.27966	
-2.28271	
-2.28271	
-2.27509	
-2.27051	
-2.27203	
-2.26593	
-2.26288	
-2.26898	
-2.27814	
-2.29187	
-2.31934	
-2.32086	
-2.32544	
-2.32391	
-2.31476	
-2.30865	
-2.29797	
-2.2995	
-2.29645	
-2.29187	
-2.28119	
-2.27814	
-2.28119	
-2.29187	
-2.29797	
-2.29645	
-2.29645	
-2.29187	
-2.29187	
-2.28882	
-2.28729	
-2.27966	
-2.26898	
-2.2644	
-2.25677	
-2.25677	
-2.25677	
-2.2644	
-2.27509	
-2.27509	
-2.27814	
-2.29645	
-2.3056	
-2.31323	
-2.32239	
-2.31171	
-2.30408	
-2.2995	
-2.30103	
-2.29797	
-2.29492	
-2.29034	
-2.28119	
-2.27051	
-2.27356	
-2.28119	
-2.27814	
-2.27661	
-2.27356	
-2.27051	
-2.26746	
-2.27051	
-2.26898	
-2.26898	
-2.26746	
-2.27966	
-2.27203	
-2.27661	
-2.28119	
-2.27814	
-2.27509	
-2.27203	
-2.26898	
-2.26898	
-2.2644	
-2.26746	
-2.26746	
-2.26898	
-2.26746	
-2.26898	
-2.26593	
-2.27203	
-2.27051	
-2.26593	
-2.26288	
-2.26135	
-2.25677	
-2.26135	
-2.25983	
-2.25983	
-2.26288	
-2.26288	
-2.26746	
-2.27051	
-2.27051	
-2.27509	
-2.28119	
-2.28882	
-2.30103	
-2.30713	
-2.31781	
-2.33002	
-2.33154	
-2.33154	
-2.32239	
-2.31018	
-2.30255	
-2.30255	
-2.29034	
-2.28729	
-2.28882	
-2.27966	
-2.27509	
-2.27509	
-2.27509	
-2.27051	
-2.26898	
-2.28119	
-2.29034	
-2.29187	
-2.28577	
-2.28577	
-2.28729	
-2.28577	
-2.28119	
-2.27966	
-2.28729	
-2.29187	
-2.29492	
-2.2995	
-2.30713	
-2.31171	
-2.30865	
-2.31018	
-2.2995	
-2.30103	
-2.29645	
-2.29645	
-2.29187	
-2.28729	
-2.29645	
-2.29645	
-2.2995	
-2.30103	
-2.2995	
-2.29797	
-2.29034	
-2.28119	
-2.28271	
-2.28119	
-2.28119	
-2.27661	
-2.27509	
-2.27356	
-2.26593	
-2.26288	
-2.25677	
-2.25067	
-2.24762	
-2.25372	
-2.2644	
-2.2644	
-2.25983	
-2.2644	
-2.26288	
-2.26593	
-2.27356	
-2.27661	
-2.27509	
-2.28577	
-2.28577	
-2.28271	
-2.28119	
-2.27661	
-2.27356	
-2.27203	
-2.27051	
-2.26593	
-2.26898	
-2.26288	
-2.27356	
-2.27356	
-2.27661	
-2.28577	
-2.28577	
-2.28271	
-2.28882	
-2.2934	
-2.29797	
-2.30103	
-2.29797	
-2.30103	
-2.2995	
-2.2995	
-2.29034	
-2.28271	
-2.28119	
-2.27966	
-2.27966	
-2.28271	
-2.2934	
-2.29492	
-2.30408	
-2.30408	
-2.30713	
-2.2995	
-2.29187	
-2.27661	
-2.27356	
-2.27356	
-2.27661	
-2.26746	
-2.26135	
-2.26593	
-2.26135	
-2.2583	
-2.25525	
-2.25372	
-2.25525	
-2.2644	
-2.28271	
-2.31476	
-2.32849	
-2.34222	
-2.35596	
-2.35901	
-2.35901	
-2.3468	
-2.3407	
-2.33765	
-2.32849	
-2.31171	
-2.29645	
-2.29034	
-2.27051	
-2.26746	
-2.26135	
-2.24915	
-2.23846	
-2.23541	
-2.23083	
-2.23541	
-2.23236	
-2.24457	
-2.24915	
-2.25677	
-2.27203	
-2.28729	
-2.29187	
-2.30865	
-2.31323	
-2.30865	
-2.30865	
-2.2995	
-2.29797	
-2.29645	
-2.29645	
-2.29797	
-2.29797	
-2.2934	
-2.29492	
-2.28729	
-2.27509	
-2.27051	
-2.26288	
-2.25525	
-2.25372	
-2.25067	
-2.25067	
-2.25677	
-2.2644	
-2.26288	
-2.26593	
-2.26746	
-2.26746	
-2.27356	
-2.27661	
-2.27966	
-2.27966	
-2.29187	
-2.29645	
-2.30103	
-2.30255	
-2.2995	
-2.29797	
-2.29797	
-2.29187	
-2.2934	
-2.27966	
-2.27661	
-2.27051	
-2.26898	
-2.2644	
-2.26135	
-2.26135	
-2.26135	
-2.2583	
-2.26288	
-2.2644	
-2.27203	
-2.27966	
-2.27661	
-2.28271	
-2.27661	
-2.27509	
-2.27203	
-2.27356	
-2.27661	
-2.28577	
-2.29034	
-2.2995	
-2.30255	
-2.30713	
-2.30865	
-2.31018	
-2.32697	
-2.32849	
-2.33154	
-2.33459	
-2.32544	
-2.31171	
-2.29645	
-2.28577	
-2.26898	
-2.2644	
-2.25525	
-2.25067	
-2.24152	
-2.23999	
-2.24457	
-2.24609	
-2.24762	
-2.24915	
-2.2583	
-2.26593	
-2.27814	
-2.28119	
-2.2934	
-2.29797	
-2.29645	
-2.29645	
-2.2995	
-2.29797	
-2.2995	
-2.29645	
-2.29492	
-2.30408	
-2.2995	
-2.30408	
-2.30408	
-2.2934	
-2.28729	
-2.27966	
-2.26288	
-2.24762	
-2.23846	
-2.23846	
-2.24304	
-2.25372	
-2.25525	
-2.2583	
-2.25525	
-2.25525	
-2.26288	
-2.2644	
-2.26288	
-2.25677	
-2.25983	
-2.26593	
-2.26593	
-2.26288	
-2.26135	
-2.26288	
-2.26593	
-2.26746	
-2.27051	
-2.27661	
-2.27661	
-2.27814	
-2.28729	
-2.2934	
-2.29187	
-2.2934	
-2.29187	
-2.28729	
-2.27814	
-2.27356	
-2.27509	
-2.27051	
-2.26898	
-2.26288	
-2.26593	
-2.26898	
-2.27814	
-2.27661	
-2.28577	
-2.2934	
-2.30255	
-2.31018	
-2.31476	
-2.31934	
-2.32391	
-2.33002	
-2.32697	
-2.31781	
-2.3056	
-2.30103	
-2.29645	
-2.29034	
-2.29034	
-2.29645	
-2.2995	
-2.30713	
-2.29797	
-2.2995	
-2.2934	
-2.28119	
-2.27509	
-2.26746	
-2.2644	
-2.25067	
-2.24152	
-2.24457	
-2.23999	
-2.24457	
-2.25372	
-2.26135	
-2.25677	
-2.26135	
-2.26288	
-2.26746	
-2.26898	
-2.26288	
-2.26593	
-2.26898	
-2.29187	
-2.29645	
-2.30103	
-2.2995	
-2.3056	
-2.2995	
-2.2995	
-2.2934	
-2.29187	
-2.2934	
-2.2995	
-2.30713	
-2.3056	
-2.30255	
-2.29187	
-2.28119	
-2.27966	
-2.28119	
-2.28577	
-2.29034	
-2.29034	
-2.28271	
-2.28729	
-2.28729	
-2.27966	
-2.27966	
-2.26746	
-2.26593	
-2.26898	
-2.26593	
-2.26593	
-2.2583	
-2.25525	
-2.25067	
-2.24762	
-2.24609	
-2.24304	
-2.25372	
-2.27051	
-2.28882	
-2.29797	
-2.3056	
-2.3056	
-2.30865	
-2.30713	
-2.3056	
-2.29797	
-2.29492	
-2.29034	
-2.28577	
-2.27814	
-2.27814	
-2.28882	
-2.2934	
-2.30255	
-2.30255	
-2.30103	
-2.29797	
-2.30255	
-2.30255	
-2.29034	
-2.29797	
-2.30103	
-2.30408	
-2.30713	
-2.29645	
-2.29034	
-2.27661	
-2.27051	
-2.26898	
-2.26746	
-2.25983	
-2.25677	
-2.2644	
-2.26898	
-2.26746	
-2.26593	
-2.27814	
-2.28577	
-2.28882	
-2.28882	
-2.27966	
-2.27509	
-2.27814	
-2.27966	
-2.28577	
-2.28271	
-2.27814	
-2.26746	
-2.26593	
-2.2583	
-2.25983	
-2.26135	
-2.26135	
-2.25983	
-2.25983	
-2.25983	
-2.27814	
-2.29034	
-2.29645	
-2.30408	
-2.29645	
-2.29797	
-2.29492	
-2.2934	
-2.2934	
-2.29187	
-2.2995	
-2.2995	
-2.29645	
-2.2995	
-2.30103	
-2.29492	
-2.29492	
-2.29187	
-2.29187	
-2.2995	
-2.30103	
-2.2995	
-2.3056	
-2.29797	
-2.29187	
-2.28882	
-2.28119	
-2.27966	
-2.28729	
-2.27356	
-2.26898	
-2.26135	
-2.2583	
-2.27509	
-2.27814	
-2.27814	
-2.29492	
-2.30713	
-2.31781	
-2.31781	
-2.31781	
-2.30103	
-2.29034	
-2.27814	
-2.27966	
-2.27051	
-2.26288	
-2.26593	
-2.26135	
-2.26135	
-2.26593	
-2.2583	
-2.25372	
-2.25372	
-2.2583	
-2.25983	
-2.25525	
-2.25525	
-2.26593	
-2.29187	
-2.31018	
-2.31781	
-2.31171	
-2.31323	
-2.31171	
-2.30865	
-2.30408	
-2.29797	
-2.28882	
-2.28271	
-2.27814	
-2.27203	
-2.2644	
-2.2583	
-2.26746	
-2.27203	
-2.27051	
-2.27661	
-2.28119	
-2.27509	
-2.27661	
-2.28271	
-2.28119	
-2.28577	
-2.28119	
-2.27509	
-2.27051	
-2.26593	
-2.26288	
-2.25372	
-2.24762	
-2.24762	
-2.24762	
-2.24915	
-2.25067	
-2.25067	
-2.25677	
-2.26288	
-2.27509	
-2.28577	
-2.28271	
-2.28577	
-2.28577	
-2.28271	
-2.27966	
-2.27509	
-2.27661	
-2.27814	
-2.29187	
-2.30255	
-2.3056	
-2.31323	
-2.30865	
-2.30103	
-2.30255	
-2.30103	
-2.29645	
-2.29187	
-2.28119	
-2.27356	
-2.27203	
-2.27509	
-2.27966	
-2.27966	
-2.27203	
-2.27356	
-2.27661	
-2.28577	
-2.29492	
-2.2934	
-2.2934	
-2.28882	
-2.28577	
-2.27661	
-2.27814	
-2.28119	
-2.28577	
-2.27966	
-2.28729	
-2.28271	
-2.27966	
-2.27509	
-2.27203	
-2.2644	
-2.27051	
-2.27051	
-2.27051	
-2.27966	
-2.28271	
-2.29034	
-2.29645	
-2.3056	
-2.30255	
-2.2934	
-2.27814	
-2.27966	
-2.28271	
-2.28882	
-2.28729	
-2.2934	
-2.30103	
-2.3056	
-2.30408	
-2.29645	
-2.31018	
-2.31018	
-2.31323	
-2.31171	
-2.30408	
-2.29645	
-2.29034	
-2.27509	
-2.2644	
-2.24762	
-2.23389	
-2.22626	
-2.22626	
-2.23846	
-2.24609	
-2.24762	
-2.25067	
-2.25067	
-2.26288	
-2.26746	
-2.27051	
-2.27203	
-2.28729	
-2.27966	
-2.27966	
-2.28271	
-2.29034	
-2.29645	
-2.29645	
-2.29187	
-2.29187	
-2.29034	
-2.28882	
-2.28729	
-2.27203	
-2.26746	
-2.26135	
-2.25983	
-2.2583	
-2.25983	
-2.25067	
-2.24609	
-2.24609	
-2.25372	
-2.26593	
-2.27966	
-2.29034	
-2.2995	
-2.31934	
-2.32849	
-2.33154	
-2.32849	
-2.32239	
-2.31476	
-2.30865	
-2.30103	
-2.29187	
-2.28577	
-2.27356	
-2.26288	
-2.25525	
-2.24609	
-2.24609	
-2.24152	
-2.24609	
-2.24304	
-2.24762	
-2.25067	
-2.2583	
-2.26135	
-2.2583	
-2.26135	
-2.2583	
-2.27051	
-2.27661	
-2.27509	
-2.27814	
-2.29034	
-2.29492	
-2.29492	
-2.29492	
-2.29034	
-2.2934	
-2.28729	
-2.27966	
-2.26593	
-2.2644	
-2.26898	
-2.27814	
-2.27814	
-2.28271	
-2.2995	
-2.30103	
-2.30103	
-2.30408	
-2.30408	
-2.30255	
-2.30103	
-2.29645	
-2.29797	
-2.30713	
-2.30865	
-2.30408	
-2.3056	
-2.30408	
-2.30408	
-2.28729	
-2.27509	
-2.2644	
-2.25677	
-2.25525	
-2.25983	
-2.26746	
-2.27203	
-2.26898	
-2.26593	
-2.27051	
-2.27509	
-2.28119	
-2.27966	
-2.28882	
-2.2934	
-2.29645	
-2.29034	
-2.28119	
-2.28271	
-2.29187	
-2.29034	
-2.28882	
-2.28577	
-2.27966	
-2.27509	
-2.27356	
-2.26746	
-2.26593	
-2.25677	
-2.25372	
-2.25372	
-2.25677	
-2.25525	
-2.25525	
-2.25983	
-2.26746	
-2.28119	
-2.29034	
-2.29187	
-2.29187	
-2.29034	
-2.28882	
-2.28882	
-2.28577	
-2.28271	
-2.27814	
-2.27203	
-2.27509	
-2.27356	
-2.26898	
-2.26746	
-2.26288	
-2.26593	
-2.2644	
-2.26593	
-2.26593	
-2.27051	
-2.27509	
-2.27203	
-2.27051	
-2.27356	
-2.27051	
-2.27051	
-2.27509	
-2.27356	
-2.26746	
-2.26593	
-2.2644	
-2.26593	
-2.26593	
-2.26746	
-2.27661	
-2.27661	
-2.28729	
-2.29187	
-2.30103	
-2.30713	
-2.31018	
-2.3056	
-2.2995	
-2.29492	
-2.28119	
-2.27661	
-2.28271	
-2.28119	
-2.28577	
-2.29492	
-2.30408	
-2.30408	
-2.30255	
-2.2995	
-2.28729	
-2.27509	
-2.27203	
-2.27051	
-2.26288	
-2.25983	
-2.2583	
-2.26898	
-2.27051	
-2.27051	
-2.26746	
-2.27203	
-2.26898	
-2.27203	
-2.27356	
-2.27966	
-2.28882	
-2.29645	
-2.3056	
-2.31171	
-2.30713	
-2.30865	
-2.30255	
-2.29797	
-2.29187	
-2.27509	
-2.27356	
-2.26135	
-2.2583	
-2.25525	
-2.26746	
-2.28729	
-2.29797	
-2.31018	
-2.31781	
-2.32239	
-2.32391	
-2.32849	
-2.31476	
-2.30408	
-2.28729	
-2.28271	
-2.27203	
-2.27661	
-2.27814	
-2.27051	
-2.26593	
-2.26288	
-2.25983	
-2.26135	
-2.25983	
-2.25677	
-2.25067	
-2.25067	
-2.2583	
-2.26898	
-2.27509	
-2.28882	
-2.29492	
-2.29187	
-2.2934	
-2.29034	
-2.28271	
-2.27661	
-2.27356	
-2.27356	
-2.27203	
-2.27203	
-2.26898	
-2.26593	
-2.2644	
-2.27814	
-2.28119	
-2.29645	
-2.30255	
-2.2995	
-2.31323	
-2.31476	
-2.30865	
-2.29645	
-2.28882	
-2.27966	
-2.27966	
-2.27051	
-2.26593	
-2.25525	
-2.25677	
-2.26593	
-2.27509	
-2.27966	
-2.28882	
-2.29492	
-2.29187	
-2.30255	
-2.29645	
-2.29034	
-2.28729	
-2.27661	
-2.27509	
-2.27509	
-2.27509	
-2.26898	
-2.27661	
-2.27509	
-2.27661	
-2.27356	
-2.27356	
-2.28119	
-2.29034	
-2.28882	
-2.28119	
-2.27509	
-2.28271	
-2.29034	
-2.28729	
-2.28271	
-2.27814	
-2.28882	
-2.2934	
-2.2995	
-2.29187	
-2.28577	
-2.27966	
-2.27814	
-2.28271	
-2.27814	
-2.27356	
-2.27356	
-2.27051	
-2.27814	
-2.29797	
-2.30255	
-2.2995	
-2.2934	
-2.28882	
-2.28729	
-2.28882	
-2.29797	
-2.29645	
-2.29492	
-2.29797	
-2.2995	
-2.29797	
-2.29034	
-2.28271	
-2.28119	
-2.29034	
-2.2934	
-2.29187	
-2.28882	
-2.27661	
-2.26593	
-2.25983	
-2.24762	
-2.23999	
-2.23846	
-2.23846	
-2.23846	
-2.23999	
-2.24609	
-2.2583	
-2.26593	
-2.26898	
-2.27966	
-2.28882	
-2.29645	
-2.29797	
-2.29645	
-2.30408	
-2.30713	
-2.30255	
-2.2995	
-2.29797	
-2.28882	
-2.28271	
-2.27814	
-2.27203	
-2.26593	
-2.26135	
-2.26135	
-2.26593	
-2.26288	
-2.27203	
-2.28577	
-2.2934	
-2.29797	
-2.29797	
-2.2934	
-2.29034	
-2.28882	
-2.28119	
-2.27814	
-2.26746	
-2.2644	
-2.27509	
-2.29492	
-2.29797	
-2.29797	
-2.29492	
-2.29187	
-2.28271	
-2.27814	
-2.26898	
-2.27661	
-2.27814	
-2.27509	
-2.27509	
-2.28119	
-2.28729	
-2.29645	
-2.29797	
-2.2934	
-2.28729	
-2.27661	
-2.27509	
-2.27203	
-2.26135	
-2.2583	
-2.25372	
-2.25525	
-2.2583	
-2.25983	
-2.25983	
-2.25677	
-2.26288	
-2.26135	
-2.27203	
-2.27661	
-2.29797	
-2.30103	
-2.31018	
-2.31476	
-2.32086	
-2.31323	
-2.31781	
-2.31781	
-2.31934	
-2.31781	
-2.3056	
-2.30103	
-2.28729	
-2.28119	
-2.26746	
-2.26898	
-2.26593	
-2.26746	
-2.26898	
-2.27203	
-2.27661	
-2.26898	
-2.26593	
-2.26288	
-2.26593	
-2.26898	
-2.27966	
-2.27509	
-2.27661	
-2.28271	
-2.28119	
-2.27966	
-2.27661	
-2.27509	
-2.27356	
-2.2644	
-2.26135	
-2.28729	
-2.2995	
-2.29797	
-2.2995	
-2.29187	
-2.2934	
-2.30103	
-2.29645	
-2.29187	
-2.29034	
-2.28729	
-2.28882	
-2.28577	
-2.28271	
-2.27509	
-2.2644	
-2.26288	
-2.26746	
-2.26746	
-2.26135	
-2.26135	
-2.26288	
-2.26288	
-2.27203	
-2.27203	
-2.27356	
-2.28882	
-2.2934	
-2.29797	
-2.30255	
-2.30255	
-2.30408	
-2.30103	
-2.29492	
-2.28882	
-2.27966	
-2.27203	
-2.27051	
-2.27051	
-2.27814	
-2.28271	
-2.29034	
-2.30103	
-2.30865	
-2.3056	
-2.30408	
-2.30713	
-2.31018	
-2.31171	
-2.31018	
-2.30713	
-2.29797	
-2.27966	
-2.26593	
-2.2583	
-2.25372	
-2.24304	
-2.23541	
-2.23083	
-2.24457	
-2.24915	
-2.25067	
-2.25677	
-2.27509	
-2.28882	
-2.29797	
-2.30255	
-2.30408	
-2.30103	
-2.30255	
-2.29797	
-2.2934	
-2.2934	
-2.29034	
-2.29492	
-2.29034	
-2.29645	
-2.2934	
-2.29187	
-2.28882	
-2.28271	
-2.27966	
-2.28271	
-2.27814	
-2.27356	
-2.26746	
-2.27051	
-2.2995	
-2.31934	
-2.31781	
-2.30865	
-2.30408	
-2.30408	
-2.29645	
-2.29492	
-2.2934	
-2.2934	
-2.29492	
-2.30103	
-2.30408	
-2.2995	
-2.28882	
-2.29797	
-2.31934	
-2.32239	
-2.32239	
-2.31476	
-2.31323	
-2.29492	
-2.28119	
-2.26593	
-2.25067	
-2.24457	
-2.24304	
-2.23846	
-2.23694	
-2.23694	
-2.23999	
-2.23999	
-2.25372	
-2.25677	
-2.26593	
-2.27509	
-2.28271	
-2.30103	
-2.30713	
-2.30713	
-2.2995	
-2.30255	
-2.29492	
-2.29492	
-2.29797	
-2.29492	
-2.29187	
-2.29187	
-2.29492	
-2.29492	
-2.28882	
-2.28729	
-2.28577	
-2.27814	
-2.27051	
-2.27051	
-2.27203	
-2.26593	
-2.26898	
-2.27203	
-2.27203	
-2.26746	
-2.26288	
-2.26746	
-2.27203	
-2.27509	
-2.28577	
-2.28119	
-2.28729	
-2.29187	
-2.29492	
-2.31018	
-2.32391	
-2.32086	
-2.32544	
-2.31323	
-2.31171	
-2.30713	
-2.2995	
-2.2934	
-2.28882	
-2.27356	
-2.26898	
-2.26746	
-2.25983	
-2.25983	
-2.26898	
-2.27356	
-2.27966	
-2.29034	
-2.29645	
-2.29797	
-2.29034	
-2.28271	
-2.28119	
-2.27966	
-2.27356	
-2.27203	
-2.28577	
-2.29492	
-2.30408	
-2.30408	
-2.30103	
-2.2995	
-2.28882	
-2.28729	
-2.2995	
-2.29492	
-2.29797	
-2.30255	
-2.30255	
-2.30103	
-2.29645	
-2.29187	
-2.28271	
-2.27814	
-2.27509	
-2.27051	
-2.26135	
-2.25677	
-2.24915	
-2.25067	
-2.25677	
-2.25677	
-2.25372	
-2.25372	
-2.2644	
-2.27814	
-2.27814	
-2.27966	
-2.27814	
-2.27966	
-2.29034	
-2.30103	
-2.32239	
-2.33917	
-2.3468	
-2.35443	
-2.34528	
-2.33917	
-2.32544	
-2.31476	
-2.30713	
-2.30103	
-2.30255	
-2.29645	
-2.28729	
-2.28119	
-2.27661	
-2.27356	
-2.27356	
-2.26746	
-2.26288	
-2.26593	
-2.27814	
-2.28882	
-2.28729	
-2.28882	
-2.28271	
-2.28577	
-2.27966	
-2.27356	
-2.26746	
-2.27356	
-2.27356	
-2.26593	
-2.26593	
-2.2644	
-2.26288	
-2.26898	
-2.27814	
-2.28577	
-2.29645	
-2.30103	
-2.2995	
-2.30408	
-2.30713	
-2.31323	
-2.31476	
-2.31781	
-2.31781	
-2.3056	
-2.2995	
-2.28729	
-2.28577	
-2.28271	
-2.28119	
-2.27661	
-2.27509	
-2.28882	
-2.28577	
-2.29034	
-2.28729	
-2.28271	
-2.28577	
-2.28577	
-2.29187	
-2.30865	
-2.30255	
-2.29645	
-2.31171	
-2.31171	
-2.30713	
-2.29645	
-2.29492	
-2.29034	
-2.28271	
-2.27509	
-2.27661	
-2.27814	
-2.27356	
-2.2644	
-2.2644	
-2.27051	
-2.27966	
-2.28882	
-2.29645	
-2.3056	
-2.31934	
-2.32544	
-2.32086	
-2.32391	
-2.32544	
-2.31018	
-2.30255	
-2.28882	
-2.27661	
-2.27051	
-2.26898	
-2.26746	
-2.27203	
-2.2583	
-2.2583	
-2.2644	
-2.27051	
-2.26898	
-2.28119	
-2.29187	
-2.29187	
-2.29797	
-2.2934	
-2.28882	
-2.29034	
-2.2934	
-2.2934	
-2.29645	
-2.30103	
-2.30255	
-2.30103	
-2.30103	
-2.29797	
-2.30408	
-2.29645	
-2.28577	
-2.28882	
-2.29034	
-2.28119	
-2.28271	
-2.27661	
-2.26898	
-2.26593	
-2.27051	
-2.27203	
-2.28119	
-2.28577	
-2.28271	
-2.28577	
-2.28577	
-2.29034	
-2.29797	
-2.30408	
-2.31018	
-2.32849	
-2.32544	
-2.31934	
-2.32086	
-2.32849	
-2.33612	
-2.33002	
-2.32544	
-2.31934	
-2.30865	
-2.32391	
-2.33002	
-2.33002	
-2.32849	
-2.31781	
-2.3056	
-2.2995	
-2.29645	
-2.28119	
-2.27966	
-2.28882	
-2.30255	
-2.2995	
-2.29645	
-2.29797	
-2.2995	
-2.2934	
-2.29034	
-2.28729	
-2.28729	
-2.28119	
-2.27356	
-2.27356	
-2.27203	
-2.26746	
-2.27509	
-2.28577	
-2.2934	
-2.30408	
-2.3056	
-2.29645	
-2.28882	
-2.28119	
-2.27814	
-2.27509	
-2.28577	
-2.29492	
-2.30408	
-2.31934	
-2.32697	
-2.33612	
-2.32391	
-2.30408	
-2.29492	
-2.28271	
-2.27356	
-2.25677	
-2.24457	
-2.24152	
-2.23694	
-2.23541	
-2.22778	
-2.22778	
-2.22778	
-2.23389	
-2.23846	
-2.24304	
-2.25677	
-2.2583	
-2.26288	
-2.27051	
-2.27966	
-2.29645	
-2.31323	
-2.32697	
-2.33612	
-2.33459	
-2.33154	
-2.33765	
-2.33612	
-2.33154	
-2.32086	
-2.31171	
-2.30103	
-2.28271	
-2.27051	
-2.26593	
-2.27203	
-2.27661	
-2.28119	
-2.28577	
-2.29797	
-2.30713	
-2.31476	
-2.33459	
-2.33917	
-2.33765	
-2.33459	
-2.33612	
-2.33459	
-2.33459	
-2.32086	
-2.30408	
-2.29034	
-2.27203	
-2.25983	
-2.24762	
-2.24762	
-2.2644	
-2.26593	
-2.26593	
-2.27509	
-2.27661	
-2.27966	
-2.28271	
-2.27966	
-2.28119	
-2.27203	
-2.25372	
-2.23999	
-2.23236	
-2.22321	
-2.23083	
-2.23541	
-2.24457	
-2.25983	
-2.26898	
-2.27203	
-2.27051	
-2.27356	
-2.27356	
-2.27966	
-2.30103	
-2.33154	
-2.35443	
-2.35138	
-2.35443	
-2.36511	
-2.36206	
-2.36053	
-2.3468	
-2.32849	
-2.30713	
-2.29034	
-2.27203	
-2.25525	
-2.25372	
-2.24915	
-2.25525	
-2.24915	
-2.26288	
-2.26288	
-2.26898	
-2.27203	
-2.28577	
-2.30103	
-2.33765	
-2.35748	
-2.36664	
-2.36511	
-2.35901	
-2.34528	
-2.33154	
-2.31934	
-2.30103	
-2.28729	
-2.27814	
-2.26593	
-2.25525	
-2.24762	
-2.24762	
-2.25372	
-2.27203	
-2.29187	
-2.30255	
-2.3056	
-2.31781	
-2.31476	
-2.30713	
-2.2995	
-2.29187	
-2.27661	
-2.2644	
-2.25983	
-2.24762	
-2.25677	
-2.26288	
-2.2644	
-2.26746	
-2.27051	
-2.27051	
-2.27661	
-2.26593	
-2.25983	
-2.25525	
-2.25983	
-2.26746	
-2.29797	
-2.32849	
-2.33917	
-2.33154	
-2.33002	
-2.33459	
-2.33154	
-2.32391	
-2.31171	
-2.29645	
-2.27203	
-2.26288	
-2.24762	
-2.24762	
-2.24915	
-2.26135	
-2.2644	
-2.25983	
-2.26135	
-2.25677	
-2.25525	
-2.25677	
-2.2644	
-2.27203	
-2.27203	
-2.28119	
-2.29034	
-2.3056	
-2.32697	
-2.33765	
-2.33917	
-2.33917	
-2.3468	
-2.35443	
-2.33307	
-2.32086	
-2.30865	
-2.30255	
-2.29492	
-2.29187	
-2.28119	
-2.27509	
-2.27051	
-2.25525	
-2.24915	
-2.23236	
-2.23694	
-2.24457	
-2.25525	
-2.25983	
-2.25677	
-2.26288	
-2.29645	
-2.3407	
-2.35596	
-2.37732	
-2.38647	
-2.37274	
-2.36816	
-2.37885	
-2.36969	
-2.35291	
-2.32391	
-2.30408	
-2.27966	
-2.26288	
-2.25067	
-2.23999	
-2.23541	
-2.24304	
-2.24609	
-2.23236	
-2.22321	
-2.21863	
-2.22778	
-2.22473	
-2.23236	
-2.24457	
-2.27509	
-2.3056	
-2.31018	
-2.32086	
-2.33612	
-2.34222	
-2.35596	
-2.36969	
-2.37427	
-2.3819	
-2.38495	
-2.37579	
-2.36206	
-2.34222	
-2.34222	
-2.33154	
-2.33002	
-2.33917	
-2.33154	
-2.32391	
-2.31323	
-2.30713	
-2.29187	
-2.28577	
-2.29187	
-2.27814	
-2.26746	
-2.25372	
-2.24152	
-2.25067	
-2.2583	
-2.27814	
-2.29492	
-2.30103	
-2.32849	
-2.39105	
-2.43988	
-2.48413	
-2.48718	
-2.46277	
-2.41852	
-2.37122	
-2.32544	
-2.27051	
-2.25525	
-2.23999	
-2.20642	
-2.19116	
-2.20184	
-2.21863	
-2.20184	
-2.20795	
-2.22015	
-2.23236	
-2.23999	
-2.23846	
-2.24152	
-2.25372	
-2.25372	
-2.24457	
-2.23846	
-2.25677	
-2.26135	
-2.27203	
-2.29645	
-2.30713	
-2.33612	
-2.3468	
-2.36053	
-2.38647	
-2.4292	
-2.46429	
-2.4826	
-2.49023	
-2.48566	
-2.48871	
-2.45819	
-2.41394	
-2.34222	
-2.27661	
-2.22626	
-2.19574	
-2.19269	
-2.18658	
-2.18506	
-2.17896	
-2.16675	
-2.16064	
-2.16675	
-2.1698	
-2.18506	
-2.22626	
-2.27661	
-2.29645	
-2.31934	
-2.34528	
-2.37274	
-2.388	
-2.40326	
-2.42767	
-2.43378	
-2.46429	
-2.48718	
-2.45972	
-2.41547	
-2.35748	
-2.31323	
-2.31781	
-2.29492	
-2.25372	
-2.23999	
-2.27814	
-2.28729	
-2.2934	
-2.29187	
-2.27509	
-2.26746	
-2.39105	
-2.44598	
-2.41852	
-2.39105	
-2.36511	
-2.40631	
-2.40479	
-2.39258	
-2.43683	
-2.41852	
-2.40936	
-2.38342	
-2.35138	
-2.31934	
-2.27509	
-2.23083	
-2.19421	
-2.17896	
-2.14691	
-2.13013	
-2.11487	
-2.14539	
-2.13165	
-2.12097	
-2.11029	
-2.12708	
-2.15912	
-2.19727	
-2.25067	
-2.26898	
-2.24915	
-2.25525	
-2.23999	
-2.23541	
-2.22626	
-2.21863	
-2.19421	
-2.15302	
-2.14233	
-2.14691	
-2.15454	
-2.14081	
-2.16064	
-2.14996	
-2.14844	
-2.17285	
-2.19421	
-2.20642	
-2.24304	
-2.2995	
-2.32697	
-2.36053	
-2.388	
-2.3819	
-2.37427	
-2.40631	
-2.42004	
-2.41852	
-2.39868	
-2.35443	
-2.32239	
-2.33002	
-2.32239	
-2.29187	
-2.2644	
-2.22626	
-2.18353	
-2.1347	
-2.10876	
-2.11334	
-2.10724	
-2.13318	
-2.15302	
-2.1759	
-2.19116	
-2.20795	
-2.22931	
-2.2583	
-2.28577	
-2.29492	
-2.31171	
-2.32391	
-2.31476	
-2.30103	
-2.28271	
-2.25983	
-2.25372	
-2.24152	
-2.24915	
-2.24152	
-2.24304	
-2.22473	
-2.2171	
-2.2171	
-2.2171	
-2.2171	
-2.23694	
-2.25067	
-2.2995	
-2.32544	
-2.33307	
-2.33765	
-2.34528	
-2.3407	
-2.32849	
-2.31171	
-2.31934	
-2.31171	
-2.29645	
-2.27356	
-2.26593	
-2.31781	
-2.41241	
-2.49329	
-2.52228	
-2.54822	
-2.53296	
-2.49023	
-2.44598	
-2.40784	
-2.35596	
-2.30408	
-2.25983	
-2.23083	
-2.26135	
-2.26593	
-2.27814	
-2.28271	
-2.27356	
-2.23999	
-2.20642	
-2.18353	
-2.15302	
-2.14081	
-2.1347	
-2.11182	
-2.10266	
-2.09808	
-2.09961	
-2.10266	
-2.11182	
-2.13623	
-2.15912	
-2.17896	
-2.19879	
-2.2171	
-2.23389	
-2.23999	
-2.24915	
-2.2583	
-2.26288	
-2.26135	
-2.26593	
-2.2644	
-2.2583	
-2.25677	
-2.25983	
-2.25372	
-2.25525	
-2.25983	
-2.28577	
-2.31934	
-2.35901	
-2.39105	
-2.40784	
-2.42157	
-2.41547	
-2.40936	
-2.39716	
-2.42615	
-2.47345	
-2.49329	
-2.47192	
-2.42615	
-2.37885	
-2.34222	
-2.30255	
-2.29187	
-2.24762	
-2.21405	
-2.211	
-2.23389	
-2.25067	
-2.26288	
-2.2644	
-2.29034	
-2.28577	
-2.24762	
-2.22931	
-2.23083	
-2.21558	
-2.211	
-2.21252	
-2.2049	
-2.22321	
-2.21558	
-2.21558	
-2.20795	
-2.20642	
-2.20032	
-2.20642	
-2.22778	
-2.25067	
-2.2644	
-2.2644	
-2.24762	
-2.24152	
-2.22473	
-2.21558	
-2.19879	
-2.19269	
-2.19269	
-2.18201	
-2.17743	
-2.18506	
-2.2049	
-2.21405	
-2.22931	
-2.23541	
-2.23694	
-2.23999	
-2.25372	
-2.27203	
-2.28729	
-2.29645	
-2.2995	
-2.29645	
-2.29034	
-2.29034	
-2.29492	
-2.32391	
-2.36359	
-2.40173	
-2.43988	
-2.45819	
-2.50854	
-2.57263	
-2.60315	
-2.58636	
-2.56653	
-2.5528	
-2.50397	
-2.43378	
-2.41852	
-2.38342	
-2.31323	
-2.27203	
-2.20032	
-2.14996	
-2.1347	
-2.15149	
-2.20032	
-2.23846	
-2.23999	
-2.24304	
-2.25372	
-2.23999	
-2.23083	
-2.23541	
-2.29797	
-2.33459	
-2.33612	
-2.31781	
-2.29034	
-2.2644	
-2.30865	
-2.40173	
-2.40326	
-2.41394	
-2.4292	
-2.43378	
-2.42004	
-2.39105	
-2.35138	
-2.30865	
-2.26288	
-2.18353	
-2.13776	
-2.13928	
-2.16217	
-2.17743	
-2.20642	
-2.19879	
-2.20337	
-2.23083	
-2.23541	
-2.22321	
-2.22015	
-2.24304	
-2.24915	
-2.22473	
-2.20795	
-2.18811	
-2.18201	
-2.1698	
-2.15912	
-2.15607	
-2.14691	
-2.13623	
-2.13623	
-2.16675	
-2.19727	
-2.20337	
-2.20337	
-2.22626	
-2.22015	
-2.22473	
-2.22015	
-2.23083	
-2.22778	
-2.23083	
-2.22778	
-2.22321	
-2.22778	
-2.23389	
-2.23694	
-2.25525	
-2.25067	
-2.24915	
-2.26288	
-2.26593	
-2.26746	
-2.27203	
-2.28577	
-2.29645	
-2.30103	
-2.2995	
-2.30103	
-2.30103	
-2.30865	
-2.31476	
-2.32086	
-2.32697	
-2.33002	
-2.31934	
-2.31476	
-2.30713	
-2.31323	
-2.33307	
-2.35748	
-2.43683	
-2.51617	
-2.55127	
-2.56348	
-2.54822	
-2.52228	
-2.49176	
-2.45056	
-2.40326	
-2.38953	
-2.43225	
-2.45056	
-2.4292	
-2.38953	
-2.34375	
-2.28119	
-2.24304	
-2.20032	
-2.15149	
-2.12402	
-2.11487	
-2.11792	
-2.13928	
-2.17285	
-2.28882	
-2.35138	
-2.34375	
-2.33002	
-2.30865	
-2.36664	
-2.43378	
-2.46124	
-2.42767	
-2.41394	
-2.43073	
-2.51465	
-2.5238	
-2.49634	
-2.44751	
-2.41699	
-2.41394	
-2.41852	
-2.45514	
-2.43988	
-2.40479	
-2.3407	
-2.388	
-2.58026	
-2.62146	
-2.60773	
-2.62451	
-2.71301	
-2.75269	
-2.67792	
-2.62909	
-2.58636	
-2.59399	
-2.58636	
-2.46124	
-2.35138	
-2.31171	
-2.45361	
-2.61078	
-2.62146	
-2.60315	
-2.61688	
-2.74048	
-2.83508	
-3.06854	
-3.37982	
-3.42407	
-3.30048	
-3.1311	
-2.91443	
-2.70081	
-2.46277	
-2.16675	
-1.95465	
-2.33765	
-3.06549	
-3.17993	
-3.17078	
-3.20282	
-3.3783	
-3.40424	
-3.33862	
-3.0426	
-2.75116	
-2.5528	
-2.45819	
-2.59094	
-2.48566	
-2.47345	
-2.76947	
-2.68707	
-2.49023	
-2.37427	
-2.16827	
-2.05231	
-1.90277	
-1.75171	
-1.57471	
-1.39465	
-1.30005	
-1.44653	
-1.72272	
-1.82343	
-2.03857	
-2.87018	
-3.21198	
-3.07922	
-2.87323	
-2.70996	
-2.43073	
-2.05078	
-1.65405	
-1.36719	
-1.33057	
-1.28174	
-1.32294	
-1.27563	
-1.25427	
-1.24207	
-1.28021	
-1.27411	
-1.55029	
-1.93329	
-2.16522	
-2.38647	
-2.41394	
-2.44751	
-2.5528	
-2.94952	
-3.56293	
-3.6377	
-3.46985	
-3.16467	
-2.93274	
-2.73132	
-2.43988	
-2.30713	
-2.29187	
-2.43988	
-2.58026	
-2.49939	
-2.52991	
-2.79083	
-2.8656	
-3.05023	
-2.95258	
-2.73438	
-2.43073	
-2.07367	
-1.71204	
-1.49536	
-1.33514	
-1.19629	
-1.75781	
-2.2049	
-2.27966	
-2.16064	
-1.99432	
-1.82495	
-1.7746	
-1.61591	
-1.62354	
-1.57776	
-1.54724	
-1.45874	
-1.33667	
-1.39008	
-1.70746	
-2.26288	
-2.42004	
-2.59247	
-2.96326	
-3.02582	
-2.91595	
-2.88849	
-2.90985	
-2.83966	
-3.02124	
-3.1311	
-3.17535	
-3.19824	
-3.00751	
-2.62451	
-2.17285	
-1.77002	
-1.44806	
-1.23444	
-1.1734	
-1.31683	
-1.38092	
-1.49384	
-1.58386	
-1.6861	
-1.69525	
-1.70441	
-1.71051	
-1.77155	
-1.84784	
-1.90735	
-1.97144	
-2.26135	
-2.55737	
-2.67181	
-2.84882	
-3.16925	
-3.36151	
-3.34167	
-3.17688	
-2.9953	
-2.78931	
-2.56195	
-2.39105	
-2.24762	
-2.211	
-2.37122	
-2.22473	
-2.07977	
-2.01721	
-1.94397	
-1.86005	
-1.9577	
-2.22931	
-2.52838	
-2.92816	
-3.14941	
-3.27301	
-3.22113	
-3.17993	
-3.09906	
-2.94495	
-2.78473	
-2.67181	
-2.49329	
-2.2583	
-2.04315	
-1.84326	
-1.81274	
-1.79901	
-1.85547	
-1.93329	
-1.91498	
-2.07977	
-2.2171	
-2.31781	
-2.4704	
-2.72675	
-2.87628	
-2.948	
-2.99072	
-3.02124	
-2.92053	
-2.80914	
-2.67487	
-2.56348	
-2.41394	
-2.19116	
-2.02637	
-1.91956	
-1.86462	
-1.88446	
-1.88141	
-1.95465	
-2.11792	
-2.21558	
-2.32697	
-2.51923	
-2.87781	
-3.19214	
-3.28827	
-3.35999	
-3.41034	
-3.32336	
-3.21045	
-3.08228	
-3.10822	
-3.10364	
-3.01056	
-2.93884	
-2.78778	
-2.69775	
-2.59094	
-2.49634	
-2.39563	
-2.27661	
-2.29645	
-2.51007	
-2.6413	
-2.66724	
-2.7298	
-2.88391	
-3.04871	
-3.21503	
-3.28827	
-3.2135	
-3.31573	
-3.4317	
-3.36456	
-3.23486	
-3.24097	
-3.19366	
-3.09143	
-2.94647	
-2.76489	
-2.6413	
-2.56348	
-2.40173	
-2.28882	
-2.29797	
-2.26593	
-2.24609	
-2.33307	
-2.42462	
-2.6886	
-2.81219	
-2.88544	
-2.98462	
-2.99683	
-3.06702	
-3.25775	
-3.55072	
-3.43323	
-3.32794	
-3.30658	
-3.19672	
-3.08685	
-3.02734	
-3.05939	
-2.87933	
-2.72675	
-2.5177	
-2.27509	
-2.14691	
-1.98822	
-1.97296	
-1.93176	
-2.034	
-2.03552	
-2.16064	
-2.23083	
-2.29797	
-2.39868	
-2.56653	
-2.70691	
-2.74353	
-2.7771	
-2.80914	
-2.76337	
-2.69318	
-2.68707	
-2.57416	
-2.45819	
-2.39868	
-2.53296	
-2.58789	
-2.61688	
-2.60773	
-2.6001	
-2.64282	
-2.58789	
-2.64893	
-2.66266	
-2.83661	
-3.40118	
-3.48053	
-3.35693	
-3.07007	
-2.79694	
-2.52075	
-2.22321	
-2.00043	
-1.89514	
-1.90582	
-2.00653	
-2.09045	
-2.07977	
-2.1347	
-2.40631	
-2.565	
-2.67487	
-2.74048	
-2.79388	
-2.80151	
-2.68555	
-2.58331	
-2.49329	
-2.41394	
-2.29492	
-2.2583	
-2.16827	
-2.00348	
-1.9104	
-1.89209	
-1.95313	
-2.02942	
-2.26135	
-2.40173	
-2.53143	
-2.63672	
-2.70233	
-2.86102	
-2.97699	
-2.93884	
-2.86407	
-2.65961	
-2.52991	
-2.53296	
-2.69775	
-2.72217	
-2.6413	
-2.55737	
-2.5528	
-2.52991	
-2.57111	
-2.4765	
-2.40479	
-2.24457	
-2.06604	
-1.80511	
-1.59149	
-1.47095	
-1.44196	
-1.65558	
-1.96228	
-2.13623	
-2.28729	
-2.55127	
-2.63519	
-2.57568	
-2.52686	
-2.53296	
-2.5177	
-2.42462	
-2.36969	
-2.4765	
-2.45209	
-2.45056	
-2.50092	
-2.45819	
-2.45056	
-2.41852	
-2.35291	
-2.26898	
-2.2171	
-2.12708	
-2.01569	
-1.82953	
-1.8631	
-1.95923	
-1.98517	
-2.05994	
-2.18201	
-2.38647	
-2.49023	
-2.62909	
-2.78931	
-2.79541	
-2.75269	
-2.70538	
-2.66266	
-2.60468	
-2.52533	
-2.31781	
-2.18048	
-2.28119	
-2.23236	
-2.27661	
-2.26898	
-2.25983	
-2.22015	
-2.25677	
-2.32849	
-2.35291	
-2.4231	
-2.42157	
-2.50092	
-2.49176	
-2.39716	
-2.33002	
-2.28882	
-2.25677	
-2.23389	
-2.22015	
-2.24152	
-2.37274	
-2.38342	
-2.36664	
-2.42615	
-2.50244	
-2.54211	
-2.53448	
-2.45514	
-2.37885	
-2.28119	
-2.20795	
-2.2583	
-2.37274	
-2.60315	
-2.86713	
-3.05176	
-3.32336	
-3.37524	
-3.3493	
-3.22723	
-3.07465	
-2.771	
-2.57568	
-2.35596	
-2.1637	
-2.07214	
-1.97296	
-1.95313	
-1.98822	
-2.034	
-2.04163	
-2.14539	
-2.41699	
-2.6886	
-2.87323	
-2.88544	
-2.9007	
-2.83661	
-2.71301	
-2.59552	
-2.52533	
-2.33917	
-2.11792	
-2.11639	
-2.211	
-2.35138	
-2.49481	
-2.67639	
-2.70386	
-2.69928	
-2.65808	
-2.58484	
-2.50854	
-2.45361	
-2.42615	
-2.35291	
-2.32697	
-2.24915	
-2.32239	
-2.43835	
-2.56195	
-2.66266	
-2.7298	
-2.82288	
-2.86102	
-2.8656	
-2.91443	
-2.93884	
-2.98309	
-3.15247	
-3.1189	
-2.91748	
-2.72217	
-2.5528	
-2.44446	
-2.28729	
-2.17896	
-2.12097	
-2.16522	
-2.43378	
-2.64435	
-2.73743	
-2.71301	
-2.71759	
-2.57721	
-2.38647	
-2.33154	
-2.2995	
-2.25677	
-2.35901	
-2.42615	
-2.50854	
-2.53448	
-2.565	
-2.58026	
-2.52686	
-2.43988	
-2.39258	
-2.46124	
-2.62299	
-2.72522	
-2.72064	
-2.742	
-2.69775	
-2.76489	
-2.79083	
-2.6947	
-2.52838	
-2.33765	
-2.2583	
-2.2644	
-2.11487	
-2.05231	
-2.19879	
-2.38647	
-2.40326	
-2.42615	
-2.42462	
-2.36969	
-2.40784	
-2.51312	
-2.56195	
-2.53601	
-2.4353	
-2.3407	
-2.28882	
-2.32086	
-2.39868	
-2.42767	
-2.31171	
-2.39716	
-2.42462	
-2.42615	
-2.45667	
-2.42157	
-2.3941	
-2.41699	
-2.43835	
-2.49023	
-2.52991	
-2.56042	
-2.55432	
-2.58789	
-2.60773	
-2.57721	
-2.60925	
-2.62146	
-2.57263	
-2.56805	
-2.52838	
-2.37427	
-2.22626	
-2.20337	
-2.30103	
-2.4292	
-2.46887	
-2.51007	
-2.57721	
-2.56348	
-2.62604	
-2.58331	
-2.49023	
-2.42004	
-2.37274	
-2.37427	
-2.37579	
-2.46582	
-2.64435	
-2.74048	
-2.85339	
-2.93427	
-2.94342	
-2.89459	
-2.84576	
-2.67944	
-2.4292	
-2.43378	
-2.52075	
-2.42462	
-2.41852	
-2.50244	
-2.57263	
-2.66113	
-2.7359	
-2.71454	
-2.68097	
-2.6535	
-2.64435	
-2.63214	
-2.61078	
-2.62909	
-2.70538	
-2.79846	
-2.89154	
-2.97699	
-3.00293	
-3.01514	
-2.96021	
-2.87781	
-2.81677	
-2.71759	
-2.67487	
-2.72522	
-2.80457	
-2.87323	
-2.90985	
-2.89307	
-2.89001	
-2.91138	
-2.92358	
-2.9007	
-3.03345	
-3.09906	
-3.1601	
-3.16925	
-3.14941	
-3.00293	
-2.87018	
-2.72522	
-2.61993	
-2.66266	
-2.77557	
-2.82593	
-2.87323	
-2.90985	
-2.99225	
-3.07312	
-3.18756	
-3.302	
-3.33405	
-3.35388	
-3.26538	
-3.11737	
-3.01971	
-2.94342	
-2.82898	
-2.83356	
-2.92053	
-3.05176	
-3.06549	
-3.125	
-3.09906	
-3.11584	
-3.09296	
-3.0365	
-2.94647	
-2.95715	
-3.00903	
-3.07922	
-3.06091	
-3.08838	
-3.10059	
-3.07465	
-3.0838	
-3.06396	
-3.04718	
-3.08685	
-3.15094	
-3.2074	
-3.2135	
-3.27454	
-3.24097	
-3.22571	
-3.26538	
-3.24554	
-3.22723	
-3.2486	
-3.30048	
-3.31421	
-3.34473	
-3.36761	
-3.40118	
-3.46069	
-3.51715	
-3.59955	
-3.67584	
-3.73688	
-3.74908	
-3.66516	
-3.70789	
-3.68347	
-3.63617	
-3.5614	
-3.6026	
-3.67279	
-3.66211	
-3.51105	
-3.41949	
-3.37524	
-3.45917	
-3.54614	
-3.61328	
-3.66211	
-3.70941	
-3.71857	
-3.71094	
-3.65448	
-3.6377	
-3.67126	
-3.72009	
-3.72772	
-3.70483	
-3.70941	
-3.74908	
-3.71857	
-3.6972	
-3.7674	
-3.76434	
-3.7735	
-3.83453	
-3.91998	
-3.97339	
-3.96881	
-3.97949	
-3.99323	
-4.02222	
-4.05731	
-4.10461	
-4.16565	
-4.216	
-4.19617	
-4.16565	
-4.10919	
-4.00238	
-3.9444	
-3.84674	
-3.8208	
-3.92303	
-4.00848	
-4.06189	
-4.12903	
-4.16107	
-4.13055	
-4.10614	
-4.15955	
-4.20685	
-4.17633	
-4.1687	
-4.10919	
-4.10461	
-4.11377	
-4.13818	
-4.19922	
-4.15802	
-4.07562	
-4.12598	
-4.21753	
-4.26636	
-4.2923	
-4.19769	
-4.19312	
-4.23889	
-4.3045	
-4.29382	
-4.26941	
-4.30145	
-4.31213	
-4.25415	
-4.22363	
-4.31671	
-4.39301	
-4.45404	
-4.43878	
-4.38843	
-4.35638	
-4.35944	
-4.30908	
-4.1687	
-4.14124	
-4.1275	
-4.29993	
-4.43726	
-4.50897	
-4.54254	
-4.54407	
-4.44794	
-4.35028	
-4.21753	
-4.01611	
-3.98865	
-4.07867	
-4.10767	
-4.19617	
-4.26636	
-4.35486	
-4.49829	
-4.58679	
-4.62036	
-4.59137	
-4.5166	
-4.47083	
-4.41437	
-4.3335	
-4.23584	
-4.23584	
-4.26941	
-4.37622	
-4.48303	
-4.52118	
-4.52576	
-4.54407	
-4.58069	
-4.5639	
-4.53186	
-4.50592	
-4.48456	
-4.50287	
-4.45862	
-4.44031	
-4.37469	
-4.37164	
-4.44031	
-4.54407	
-4.58984	
-4.60663	
-4.65698	
-4.66766	
-4.67072	
-4.64783	
-4.60968	
-4.51508	
-4.51355	
-4.44641	
-4.39911	
-4.36096	
-4.3396	
-4.36401	
-4.38995	
-4.45251	
-4.48608	
-4.53339	
-4.56543	
-4.57611	
-4.5517	
-4.53796	
-4.52728	
-4.5105	
-4.52118	
-4.53186	
-4.57611	
-4.62494	
-4.65088	
-4.61426	
-4.62646	
-4.63562	
-4.56238	
-4.4754	
-4.43878	
-4.42963	
-4.4754	
-4.48151	
-4.43878	
-4.42963	
-4.44794	
-4.45404	
-4.46014	
-4.49524	
-4.56543	
-4.60663	
-4.62494	
-4.58221	
-4.49829	
-4.42352	
-4.43268	
-4.45862	
-4.4632	
-4.4342	
-4.4281	
-4.51355	
-4.61578	
-4.65393	
-4.6402	
-4.63867	
-4.58069	
-4.51355	
-4.40826	
-4.38538	
-4.45862	
-4.47693	
-4.40521	
-4.44794	
-4.45099	
-4.39911	
-4.35333	
-4.31824	
-4.33197	
-4.39301	
-4.42657	
-4.44489	
-4.47998	
-4.46167	
-4.42352	
-4.40521	
-4.37469	
-4.38995	
-4.39606	
-4.38385	
-4.41742	
-4.43878	
-4.43878	
-4.47693	
-4.49066	
-4.51508	
-4.45404	
-4.44794	
-4.46167	
-4.46167	
-4.5517	
-4.61578	
-4.61578	
-4.58527	
-4.51965	
-4.35333	
-4.22211	
-4.17938	
-4.23889	
-4.37012	
-4.41742	
-4.50287	
-4.58679	
-4.6051	
-4.52118	
-4.47693	
-4.38538	
-4.26178	
-4.15039	
-4.12903	
-4.1214	
-4.18549	
-4.22668	
-4.27094	
-4.30908	
-4.30908	
-4.30298	
-4.29535	
-4.33197	
-4.34113	
-4.32739	
-4.28162	
-4.2923	
-4.2572	
-4.22821	
-4.21143	
-4.23126	
-4.26788	
-4.31976	
-4.3808	
-4.39453	
-4.46167	
-4.4693	
-4.47998	
-4.4693	
-4.39911	
-4.33044	
-4.22974	
-4.13971	
-4.10461	
-4.10919	
-4.15497	
-4.19159	
-4.19312	
-4.22058	
-4.22058	
-4.22668	
-4.216	
-4.22974	
-4.216	
-4.24805	
-4.28009	
-4.2572	
-4.20074	
-4.2099	
-4.21753	
-4.24347	
-4.21295	
-4.19312	
-4.22974	
-4.26483	
-4.22821	
-4.18396	
-4.13208	
-4.11987	
-4.18396	
-4.17938	
-4.12598	
-4.1214	
-4.13361	
-4.17328	
-4.18549	
-4.18396	
-4.19006	
-4.22211	
-4.21753	
-4.26636	
-4.31213	
-4.32129	
-4.31366	
-4.31366	
-4.29535	
-4.25415	
-4.23279	
-4.15802	
-4.06189	
-4.07715	
-4.13208	
-4.14276	
-4.16412	
-4.245	
-4.26636	
-4.24805	
-4.23126	
-4.1748	
-4.11835	
-4.08173	
-4.01917	
-3.9917	
-4.0802	
-4.07715	
-4.04816	
-4.06189	
-4.10309	
-4.13666	
-4.16107	
-4.14276	
-4.11987	
-4.12903	
-4.11987	
-4.06342	
-4.04663	
-4.03442	
-4.04663	
-4.10004	
-4.10461	
-4.11377	
-4.05884	
-4.0329	
-4.05273	
-4.07104	
-4.10461	
-4.08325	
-4.07867	
-4.10614	
-4.12292	
-4.11224	
-4.12598	
-4.19617	
-4.21753	
-4.18549	
-4.14734	
-4.09851	
-4.05884	
-4.04968	
-4.02069	
-4.0329	
-4.06189	
-4.02679	
-4.04205	
-4.0863	
-4.14734	
-4.14886	
-4.14276	
-4.11072	
-4.09546	
-4.10309	
-4.07104	
-4.06647	
-3.99933	
-3.96423	
-3.99475	
-4.01001	
-4.00543	
-4.02985	
-4.08936	
-4.13666	
-4.11835	
-4.10919	
-4.1214	
-4.0802	
-4.04205	
-4.03748	
-4.03595	
-4.08325	
-4.14429	
-4.14581	
-4.06952	
-4.0741	
-4.10156	
-4.0741	
-4.04205	
-3.99933	
-3.9917	
-3.98865	
-3.96423	
-3.97644	
-3.99475	
-3.98712	
-4.0329	
-4.09698	
-4.14734	
-4.17786	
-4.17786	
-4.14581	
-4.10919	
-4.06952	
-4.00238	
-3.97644	
-4.02069	
-4.04663	
-4.04358	
-4.05884	
-4.08173	
-4.10461	
-4.08325	
-4.0863	
-4.09393	
-4.06647	
-4.04205	
-4.04816	
-4.0329	
-3.98712	
-3.97339	
-4.00848	
-4.03137	
-4.10156	
-4.12903	
-4.11987	
-4.10614	
-4.04358	
-3.95813	
-3.90015	
-3.89252	
-3.91998	
-3.93982	
-3.93982	
-3.95966	
-3.98865	
-3.98712	
-4.06799	
-4.1275	
-4.17633	
-4.1748	
-4.11072	
-4.04205	
-3.9505	
-3.91083	
-3.87421	
-3.86353	
-3.89404	
-4.039	
-4.16412	
-4.20074	
-4.18549	
-4.18091	
-4.13818	
-4.03595	
-3.91235	
-3.82843	
-3.83759	
-3.91998	
-3.91998	
-3.90625	
-3.93829	
-4.00085	
-4.02679	
-4.00696	
-4.00848	
-4.00848	
-3.98102	
-3.92914	
-3.91388	
-3.92609	
-3.94592	
-3.98407	
-4.00696	
-4.02527	
-4.0451	
-4.05884	
-4.10614	
-4.11835	
-4.13361	
-4.10614	
-4.02374	
-3.93219	
-3.88947	
-3.90778	
-3.92609	
-3.94897	
-3.98712	
-3.98865	
-4.00085	
-4.01001	
-3.98254	
-3.9032	
-3.86963	
-3.86353	
-3.8681	
-3.89099	
-3.9444	
-4.00543	
-4.0329	
-4.05273	
-4.02527	
-4.01459	
-4.00696	
-3.94745	
-3.89709	
-3.89252	
-3.88336	
-3.91235	
-3.93524	
-3.97949	
-4.01459	
-4.05731	
-4.07715	
-4.06342	
-4.03137	
-3.97797	
-3.92303	
-3.90472	
-3.86353	
-3.88489	
-3.95203	
-3.98712	
-4.00543	
-4.03137	
-4.04816	
-4.05121	
-4.05579	
-4.05731	
-4.06342	
-4.0863	
-4.0802	
-4.0741	
-4.06342	
-4.05121	
-4.02374	
-4.01306	
-4.01001	
-4.03442	
-4.03137	
-3.95355	
-3.92609	
-3.90472	
-3.91693	
-3.88641	
-3.92303	
-3.92151	
-3.91998	
-3.94135	
-3.94745	
-3.99475	
-4.00391	
-4.00696	
-4.04663	
-4.00543	
-3.98254	
-3.98407	
-3.94592	
-3.90015	
-3.89404	
-3.92456	
-3.97339	
-4.00391	
-4.01764	
-4.01001	
-4.01154	
-3.9917	
-3.9917	
-3.97949	
-3.94745	
-3.95203	
-3.96729	
-3.95813	
-3.92609	
-3.91541	
-3.9444	
-3.96881	
-3.98407	
-4.00085	
-3.99933	
-4.00696	
-3.99323	
-3.98102	
-3.92303	
-3.85284	
-3.82385	
-3.81012	
-3.84674	
-3.9032	
-3.97186	
-3.98712	
-4.06494	
-4.13666	
-4.12292	
-4.04968	
-3.94135	
-3.88031	
-3.89404	
-3.84064	
-3.77197	
-3.78571	
-3.81927	
-3.85284	
-3.88641	
-3.88947	
-3.92303	
-4.00085	
-4.02222	
-4.03595	
-4.04968	
-4.05273	
-4.05426	
-4.02222	
-3.92456	
-3.86353	
-3.84369	
-3.84979	
-3.79791	
-3.79181	
-3.82843	
-3.88947	
-3.94592	
-4.00696	
-4.04205	
-4.04968	
-3.98102	
-3.91083	
-3.87726	
-3.84216	
-3.84521	
-3.8208	
-3.84216	
-3.84216	
-3.87878	
-3.87726	
-3.84979	
-3.81012	
-3.83148	
-3.86963	
-3.93829	
-3.95813	
-3.97186	
-4.00696	
-3.99017	
-3.95203	
-3.87726	
-3.79486	
-3.75519	
-3.76282	
-3.79486	
-3.84674	
-3.89099	
-3.92914	
-3.98254	
-3.99933	
-4.01917	
-4.00848	
-3.97644	
-3.91998	
-3.90625	
-3.91388	
-3.89099	
-3.89862	
-3.87726	
-3.85284	
-3.87726	
-3.91693	
-3.93829	
-3.91998	
-3.92914	
-3.92609	
-3.90778	
-3.91998	
-3.88031	
-3.88184	
-3.90015	
-3.92609	
-3.96881	
-3.98407	
-4.01611	
-4.00848	
-4.01459	
-4.00238	
-3.96729	
-3.90015	
-3.84979	
-3.86353	
-3.84521	
-3.86658	
-3.87421	
-3.91693	
-3.97491	
-4.00391	
-4.0329	
-4.02985	
-3.9917	
-3.91083	
-3.81622	
-3.79486	
-3.77655	
-3.75824	
-3.78113	
-3.81927	
-3.85132	
-3.87726	
-3.92303	
-3.95813	
-3.97491	
-3.99323	
-4.03595	
-4.0802	
-4.04663	
-3.97644	
-3.91235	
-3.89252	
