-3.19977	
-3.20282	
-3.20282	
-3.20587	
-3.20129	
-3.19977	
-3.19824	
-3.20282	
-3.20129	
-3.20282	
-3.19977	
-3.20587	
-3.20129	
-3.20282	
-3.20282	
-3.20129	
-3.19824	
-3.20129	
-3.19824	
-3.19977	
-3.20129	
-3.20129	
-3.19824	
-3.20129	
-3.20282	
-3.19977	
-3.20282	
-3.20129	
-3.20129	
-3.19977	
-3.19824	
-3.20129	
-3.19977	
-3.19672	
-3.19824	
-3.19672	
-3.19977	
-3.20129	
-3.19977	
-3.19672	
-3.19824	
-3.20129	
-3.19824	
-3.19977	
-3.19824	
-3.19672	
-3.19824	
-3.19977	
-3.19824	
-3.19519	
-3.19672	
-3.19824	
-3.19672	
-3.20129	
-3.20587	
-3.20282	
-3.20587	
-3.2074	
-3.21198	
-3.21198	
-3.21198	
-3.21045	
-3.21045	
-3.2135	
-3.21503	
-3.20892	
-3.20892	
-3.20892	
-3.21045	
-3.2074	
-3.21198	
-3.2135	
-3.21198	
-3.21198	
-3.2135	
-3.2135	
-3.20892	
-3.2135	
-3.20892	
-3.20892	
-3.20892	
-3.20892	
-3.2074	
-3.20587	
-3.2074	
-3.2074	
-3.20892	
-3.20587	
-3.2074	
-3.20282	
-3.20587	
-3.2074	
-3.20282	
-3.20892	
-3.20587	
-3.20129	
-3.20587	
-3.20282	
-3.20129	
-3.19977	
-3.19977	
-3.19824	
-3.19672	
-3.19824	
-3.19824	
-3.19824	
-3.19672	
-3.19824	
-3.19977	
-3.19824	
-3.19977	
-3.19824	
-3.19824	
-3.19824	
-3.20129	
-3.19672	
-3.19366	
-3.19672	
-3.19366	
-3.19672	
-3.19519	
-3.19519	
-3.19672	
-3.19824	
-3.19977	
-3.19977	
-3.19824	
-3.19672	
-3.19824	
-3.19672	
-3.19519	
-3.19519	
-3.19519	
-3.19366	
-3.19366	
-3.19519	
-3.19519	
-3.19519	
-3.19519	
-3.19672	
-3.19824	
-3.19672	
-3.19519	
-3.19824	
-3.19977	
-3.19519	
-3.19824	
-3.19519	
-3.19519	
-3.19519	
-3.19366	
-3.19214	
-3.19061	
-3.19366	
-3.19214	
-3.19214	
-3.19519	
-3.19366	
-3.19519	
-3.19672	
-3.19672	
-3.19366	
-3.19519	
-3.19672	
-3.19672	
-3.19214	
-3.19061	
-3.19519	
-3.19061	
-3.19214	
-3.19214	
-3.19214	
-3.19061	
-3.19519	
-3.19672	
-3.19214	
-3.19061	
-3.19366	
-3.19214	
-3.19519	
-3.19519	
-3.19519	
-3.19366	
-3.19214	
-3.19061	
-3.19214	
-3.19061	
-3.18909	
-3.19366	
-3.19519	
-3.19214	
-3.19672	
-3.19214	
-3.19214	
-3.19366	
-3.19214	
-3.19366	
-3.19366	
-3.19672	
-3.19214	
-3.19061	
-3.19214	
-3.19061	
-3.19061	
-3.18909	
-3.18909	
-3.19214	
-3.19366	
-3.19366	
-3.18909	
-3.19366	
-3.19061	
-3.19214	
-3.19214	
-3.19061	
-3.18909	
-3.18756	
-3.18909	
-3.18604	
-3.18756	
-3.18604	
-3.18756	
-3.18756	
-3.18909	
-3.18909	
-3.18756	
-3.19214	
-3.19061	
-3.19061	
-3.19214	
-3.19366	
-3.19061	
-3.18756	
-3.18604	
-3.18604	
-3.18756	
-3.18604	
-3.18451	
-3.18604	
-3.18451	
-3.18909	
-3.19061	
-3.18909	
-3.18756	
-3.18604	
-3.18909	
-3.18756	
-3.18604	
-3.18909	
-3.18604	
-3.18604	
-3.18451	
-3.18451	
-3.18756	
-3.18909	
-3.18909	
-3.18451	
-3.18909	
-3.18909	
-3.18909	
-3.19061	
-3.19061	
-3.19214	
-3.18604	
-3.18909	
-3.18604	
-3.18604	
-3.18604	
-3.18756	
-3.18756	
-3.18604	
-3.18604	
-3.18604	
-3.18909	
-3.18909	
-3.18909	
-3.18756	
-3.18909	
-3.18604	
-3.18604	
-3.18756	
-3.18451	
-3.18451	
-3.18298	
-3.18298	
-3.18451	
-3.18451	
-3.18604	
-3.18146	
-3.18146	
-3.18451	
-3.18451	
-3.18451	
-3.18756	
-3.18298	
-3.18451	
-3.18298	
-3.18604	
-3.17993	
-3.18146	
-3.18146	
-3.18451	
-3.18451	
-3.18146	
-3.18298	
-3.18298	
-3.18451	
-3.18451	
-3.18451	
-3.18298	
-3.18451	
-3.18756	
-3.18756	
-3.18604	
-3.18451	
-3.18298	
-3.18298	
-3.18298	
-3.18451	
-3.18451	
-3.18298	
-3.18298	
-3.17993	
-3.18604	
-3.18451	
-3.18756	
-3.18604	
-3.18756	
-3.18604	
-3.18451	
-3.18604	
-3.18604	
-3.18298	
-3.18451	
-3.18451	
-3.18604	
-3.18298	
-3.18451	
-3.18146	
-3.18298	
-3.17993	
-3.18451	
-3.18298	
-3.18451	
-3.17993	
-3.17993	
-3.18146	
-3.18298	
-3.17993	
-3.17841	
-3.17993	
-3.18298	
-3.17993	
-3.17841	
-3.17841	
-3.17841	
-3.18298	
-3.18146	
-3.18451	
-3.18298	
-3.18451	
-3.18756	
-3.18604	
-3.18451	
-3.18451	
-3.18756	
-3.18146	
-3.18298	
-3.18298	
-3.18451	
-3.18146	
-3.18298	
-3.18451	
-3.18298	
-3.18451	
-3.18451	
-3.18604	
-3.18451	
-3.18451	
-3.18604	
-3.18604	
-3.18604	
-3.18146	
-3.18298	
-3.18451	
-3.18298	
-3.18298	
-3.17841	
-3.18146	
-3.18298	
-3.18451	
-3.18451	
-3.18451	
-3.18298	
-3.18604	
-3.18451	
-3.18298	
-3.18451	
-3.18451	
-3.18298	
-3.18146	
-3.18298	
-3.18146	
-3.18298	
-3.18451	
-3.18604	
-3.18298	
-3.18451	
-3.18451	
-3.18604	
-3.18451	
-3.18298	
-3.18451	
-3.18756	
-3.18604	
-3.18604	
-3.18298	
-3.18451	
-3.18298	
-3.18451	
-3.18451	
-3.18604	
-3.18451	
-3.18451	
-3.18909	
-3.18909	
-3.18604	
-3.18298	
-3.18909	
-3.19061	
-3.19061	
-3.18909	
-3.18756	
-3.18451	
-3.18604	
-3.18451	
-3.18604	
-3.18451	
-3.18604	
-3.18604	
-3.18451	
-3.18756	
-3.18451	
-3.19061	
-3.18451	
-3.18756	
-3.18909	
-3.18909	
-3.18451	
-3.18298	
-3.18298	
-3.18451	
-3.18298	
-3.18146	
-3.18604	
-3.18298	
-3.18451	
-3.18146	
-3.18451	
-3.18451	
-3.18604	
-3.18604	
-3.18604	
-3.18604	
-3.18756	
-3.18451	
-3.18298	
-3.18146	
-3.18298	
-3.18298	
-3.18146	
-3.18298	
-3.18298	
-3.18298	
-3.18604	
-3.18146	
-3.18298	
-3.18298	
-3.18604	
-3.18298	
-3.18451	
-3.18604	
-3.18298	
-3.18298	
-3.18146	
-3.18146	
-3.17993	
-3.18451	
-3.18146	
-3.17993	
-3.17841	
-3.17841	
-3.17993	
-3.17993	
-3.18146	
-3.18451	
-3.18451	
-3.18451	
-3.18298	
-3.18298	
-3.18146	
-3.18298	
-3.18298	
-3.18146	
-3.17993	
-3.18146	
-3.18146	
-3.18146	
-3.18298	
-3.18146	
-3.17993	
-3.18298	
-3.18451	
-3.18604	
-3.18146	
-3.17993	
-3.17841	
-3.17841	
-3.18146	
-3.17993	
-3.18146	
-3.18146	
-3.17688	
-3.17993	
-3.18146	
-3.18146	
-3.18146	
-3.17993	
-3.18451	
-3.17993	
-3.18146	
-3.17841	
-3.17993	
-3.18146	
-3.17993	
-3.18146	
-3.18298	
-3.18146	
-3.17993	
-3.18146	
-3.18146	
-3.18146	
-3.18298	
-3.17993	
-3.18298	
-3.18146	
-3.17993	
-3.17841	
-3.18146	
-3.17841	
-3.17993	
-3.17383	
-3.17993	
-3.17841	
-3.17841	
-3.17841	
-3.17841	
-3.18146	
-3.17993	
-3.18298	
-3.17993	
-3.18146	
-3.18146	
-3.18298	
-3.17841	
-3.17841	
-3.17841	
-3.17688	
-3.17688	
-3.17688	
-3.17841	
-3.17688	
-3.17535	
-3.17841	
-3.17993	
-3.18146	
-3.17841	
-3.17993	
-3.17993	
-3.18146	
-3.18298	
-3.17993	
-3.17993	
-3.17841	
-3.17688	
-3.17383	
-3.17535	
-3.17535	
-3.17993	
-3.17993	
-3.17841	
-3.17841	
-3.17841	
-3.18146	
-3.17688	
-3.17841	
-3.17688	
-3.17688	
-3.17688	
-3.17688	
-3.17841	
-3.17535	
-3.17535	
-3.17383	
-3.17688	
-3.17383	
-3.17383	
-3.17383	
-3.17535	
-3.17535	
-3.17535	
-3.17383	
-3.17535	
-3.17535	
-3.17535	
-3.17078	
-3.17078	
-3.17535	
-3.17078	
-3.16925	
-3.16925	
-3.17383	
-3.17078	
-3.17535	
-3.17383	
-3.17688	
-3.17383	
-3.17841	
-3.17688	
-3.17688	
-3.17535	
-3.17535	
-3.17535	
-3.17078	
-3.17383	
-3.17688	
-3.17078	
-3.17535	
-3.17535	
-3.17535	
-3.17688	
-3.17688	
-3.17688	
-3.17535	
-3.17841	
-3.17535	
-3.17841	
-3.17535	
-3.16925	
-3.17078	
-3.17078	
-3.16772	
-3.16772	
-3.17383	
-3.17078	
-3.16925	
-3.16925	
-3.17078	
-3.17078	
-3.17383	
-3.17383	
-3.17535	
-3.17535	
-3.17078	
-3.17383	
-3.16925	
-3.1662	
-3.1662	
-3.16925	
-3.16925	
-3.16772	
-3.17078	
-3.17078	
-3.17535	
-3.17078	
-3.17535	
-3.17383	
-3.17078	
-3.17078	
-3.17383	
-3.17383	
-3.17383	
-3.16925	
-3.16925	
-3.1662	
-3.1662	
-3.16925	
-3.16772	
-3.1662	
-3.1662	
-3.16925	
-3.17078	
-3.17078	
-3.17078	
-3.17383	
-3.17383	
-3.17078	
-3.17078	
-3.16925	
-3.17078	
-3.17078	
-3.16772	
-3.16925	
-3.16925	
-3.16772	
-3.16772	
-3.16925	
-3.17078	
-3.17383	
-3.17078	
-3.16925	
-3.16925	
-3.16772	
-3.17078	
-3.16925	
-3.1662	
-3.16315	
-3.1662	
-3.16772	
-3.16925	
-3.16772	
-3.16772	
-3.1662	
-3.16772	
-3.16925	
-3.17078	
-3.17078	
-3.16772	
-3.17535	
-3.17383	
-3.16772	
-3.16925	
-3.1662	
-3.1662	
-3.16925	
-3.16467	
-3.1662	
-3.16772	
-3.16925	
-3.16925	
-3.16925	
-3.17078	
-3.17383	
-3.16925	
-3.17078	
-3.16772	
-3.1662	
-3.1662	
-3.16315	
-3.16162	
-3.16467	
-3.16467	
-3.16315	
-3.16315	
-3.1601	
-3.16315	
-3.16162	
-3.16315	
-3.1662	
-3.16772	
-3.16467	
-3.1662	
-3.1662	
-3.1662	
-3.16467	
-3.16467	
-3.1601	
-3.16315	
-3.16467	
-3.16772	
-3.16467	
-3.1662	
-3.1662	
-3.17078	
-3.17383	
-3.17383	
-3.17383	
-3.17688	
-3.17993	
-3.18146	
-3.18146	
-3.17993	
-3.17383	
-3.17078	
-3.17688	
-3.17688	
-3.17688	
-3.17688	
-3.17993	
-3.17841	
-3.17688	
-3.17841	
-3.17993	
-3.17688	
-3.17841	
-3.17841	
-3.17841	
-3.17688	
-3.17841	
-3.17535	
-3.17688	
-3.17993	
-3.17688	
-3.17535	
-3.17688	
-3.17535	
-3.17383	
-3.17383	
-3.17078	
-3.17535	
-3.17535	
-3.17535	
-3.17383	
-3.17688	
-3.17383	
-3.17078	
-3.16925	
-3.16772	
-3.17078	
-3.1662	
-3.16772	
-3.16772	
-3.1662	
-3.16925	
-3.1662	
-3.16925	
-3.1662	
-3.1662	
-3.16772	
-3.16772	
-3.16772	
-3.16772	
-3.16467	
-3.16467	
-3.1662	
-3.1662	
-3.16315	
-3.1662	
-3.1662	
-3.16772	
-3.16925	
-3.16925	
-3.17078	
-3.16925	
-3.16772	
-3.1662	
-3.17078	
-3.16925	
-3.16467	
-3.16467	
-3.16315	
-3.16467	
-3.16315	
-3.16467	
-3.1662	
-3.1662	
-3.1662	
-3.1662	
-3.16925	
-3.17078	
-3.16925	
-3.16925	
-3.1662	
-3.1662	
-3.16772	
-3.16772	
-3.16772	
-3.16467	
-3.1662	
-3.16772	
-3.1662	
-3.1662	
-3.16772	
-3.16772	
-3.16467	
-3.16772	
-3.16772	
-3.16925	
-3.1662	
-3.16772	
-3.17078	
-3.1662	
-3.1662	
-3.16467	
-3.16772	
-3.1662	
-3.1662	
-3.1662	
-3.16772	
-3.16162	
-3.1662	
-3.16772	
-3.1662	
-3.16772	
-3.16772	
-3.16772	
-3.1662	
-3.1662	
-3.16772	
-3.16772	
-3.16467	
-3.1662	
-3.16467	
-3.1662	
-3.1662	
-3.16772	
-3.1662	
-3.16772	
-3.17078	
-3.16772	
-3.16925	
-3.1662	
-3.16772	
-3.16925	
-3.1662	
-3.1662	
-3.16467	
-3.1662	
-3.1662	
-3.16315	
-3.16467	
-3.16925	
-3.16772	
-3.16925	
-3.16772	
-3.16772	
-3.16772	
-3.16772	
-3.16772	
-3.16772	
-3.16925	
-3.1662	
-3.16467	
-3.1662	
-3.1662	
-3.16315	
-3.1662	
-3.16467	
-3.16467	
-3.1662	
-3.16467	
-3.16772	
-3.1662	
-3.16772	
-3.16315	
-3.1662	
-3.1662	
-3.16467	
-3.16467	
-3.1662	
-3.16467	
-3.16772	
-3.16772	
-3.1662	
-3.16772	
-3.16467	
-3.1662	
-3.17078	
-3.16925	
-3.16925	
-3.17383	
-3.16925	
-3.16772	
-3.16467	
-3.16925	
-3.1662	
-3.1601	
-3.16315	
-3.1662	
-3.16162	
-3.16467	
-3.16315	
-3.16162	
-3.16162	
-3.16467	
-3.16467	
-3.16467	
-3.1662	
-3.1662	
-3.16315	
-3.16467	
-3.16467	
-3.16315	
-3.16162	
-3.16467	
-3.16315	
-3.16162	
-3.1601	
-3.16315	
-3.16162	
-3.16315	
-3.1662	
-3.1662	
-3.1662	
-3.1662	
-3.1662	
-3.16772	
-3.16772	
-3.16925	
-3.1662	
-3.16315	
-3.16925	
-3.1662	
-3.16467	
-3.16315	
-3.16467	
-3.1662	
-3.16772	
-3.17078	
-3.16925	
-3.16772	
-3.17078	
-3.17078	
-3.16772	
-3.16772	
-3.16925	
-3.16772	
-3.16772	
-3.16772	
-3.16772	
-3.1662	
-3.1662	
-3.16925	
-3.16772	
-3.17078	
-3.16772	
-3.16925	
-3.17383	
-3.16925	
-3.16772	
-3.17535	
-3.17078	
-3.16925	
-3.16772	
-3.1662	
-3.16925	
-3.17078	
-3.16925	
-3.16925	
-3.16925	
-3.17078	
-3.17688	
-3.17078	
-3.17078	
-3.16925	
-3.17383	
-3.17078	
-3.17383	
-3.16925	
-3.16925	
-3.1662	
-3.16925	
-3.1662	
-3.16925	
-3.17078	
-3.16925	
-3.17078	
-3.17383	
-3.17078	
-3.17535	
-3.17383	
-3.17383	
-3.17383	
-3.17383	
-3.17535	
-3.17535	
-3.17078	
-3.17078	
-3.17078	
-3.17078	
-3.17078	
-3.17078	
-3.17078	
-3.17535	
-3.17383	
-3.17688	
-3.17535	
-3.17993	
-3.17688	
-3.17383	
-3.17535	
-3.17383	
-3.17383	
-3.16925	
-3.17078	
-3.17688	
-3.17535	
-3.17078	
-3.17535	
-3.17383	
-3.17383	
-3.17841	
-3.17841	
-3.17841	
-3.17993	
-3.17993	
-3.17688	
-3.17688	
-3.17688	
-3.17535	
-3.17383	
-3.17688	
-3.17688	
-3.17535	
-3.17688	
-3.17688	
-3.17841	
-3.17841	
-3.17688	
-3.17993	
-3.17841	
-3.17993	
-3.18298	
-3.18146	
-3.18298	
-3.17993	
-3.18146	
-3.17841	
-3.18146	
-3.18146	
-3.18146	
-3.17993	
-3.17993	
-3.18298	
-3.18146	
-3.18298	
-3.18298	
-3.17993	
-3.18451	
-3.18298	
-3.18298	
-3.18146	
-3.17993	
-3.17841	
-3.17993	
-3.17993	
-3.17993	
-3.18146	
-3.18146	
-3.18298	
-3.18298	
-3.18298	
-3.18604	
-3.18604	
-3.18451	
-3.18604	
-3.18451	
-3.18451	
-3.18298	
-3.18146	
-3.18146	
-3.18451	
-3.18451	
-3.18298	
-3.18604	
-3.18756	
-3.18756	
-3.19061	
-3.19061	
-3.18909	
-3.18909	
-3.18604	
-3.18756	
-3.18909	
-3.19061	
-3.18909	
-3.18604	
-3.18604	
-3.18756	
-3.18756	
-3.18756	
-3.18756	
-3.18756	
-3.18909	
-3.18909	
-3.19214	
-3.19061	
-3.19214	
-3.19214	
-3.19214	
-3.19061	
-3.19061	
-3.18909	
-3.18909	
-3.18909	
-3.18909	
-3.18756	
-3.18756	
-3.18909	
-3.19061	
-3.19061	
-3.19366	
-3.19214	
-3.19061	
-3.19519	
-3.18909	
-3.18909	
-3.19824	
-3.19214	
-3.19519	
-3.19061	
-3.19061	
-3.19061	
-3.19061	
-3.19214	
-3.19061	
-3.19214	
-3.19214	
-3.19366	
-3.19214	
-3.18909	
-3.19519	
-3.19366	
-3.19366	
-3.19214	
-3.19214	
-3.18756	
-3.18909	
-3.19061	
-3.18756	
-3.19061	
-3.19214	
-3.18909	
-3.18909	
-3.18909	
-3.18909	
-3.19214	
-3.19214	
-3.19214	
-3.19214	
-3.19366	
-3.19214	
-3.18756	
-3.19061	
-3.18756	
-3.18909	
-3.19061	
-3.18909	
-3.19214	
-3.19214	
-3.19366	
-3.19366	
-3.19214	
-3.19366	
-3.19672	
-3.19214	
-3.19061	
-3.18909	
-3.19214	
-3.19061	
-3.18756	
-3.18909	
-3.18451	
-3.18756	
-3.18909	
-3.18756	
-3.19061	
-3.18909	
-3.19061	
-3.19061	
-3.19214	
-3.19061	
-3.19061	
-3.18604	
-3.18909	
-3.18756	
-3.18909	
-3.18756	
-3.18909	
-3.18909	
-3.19061	
-3.19061	
-3.18756	
-3.18909	
-3.19061	
-3.19061	
-3.19061	
-3.19214	
-3.19214	
-3.19366	
-3.19366	
-3.19214	
-3.19061	
-3.19061	
-3.18909	
-3.19061	
-3.18756	
-3.18756	
-3.19061	
-3.18909	
-3.18451	
-3.19061	
-3.18756	
-3.18909	
-3.19214	
-3.18909	
-3.18909	
-3.19214	
-3.18756	
-3.18909	
-3.18756	
-3.18604	
-3.18604	
-3.18451	
-3.18756	
-3.18909	
-3.18756	
-3.18909	
-3.18909	
-3.18909	
-3.18604	
-3.18909	
-3.18756	
-3.18756	
-3.18756	
-3.18756	
-3.18451	
-3.18604	
-3.18756	
-3.18604	
-3.18909	
-3.18756	
-3.18604	
-3.18604	
-3.18756	
-3.18756	
-3.18909	
-3.18756	
-3.18909	
-3.18604	
-3.18604	
-3.18451	
-3.18451	
-3.18298	
-3.18451	
-3.18451	
-3.18298	
-3.18298	
-3.18451	
-3.18298	
-3.18604	
-3.18604	
-3.18451	
-3.18298	
-3.18756	
-3.18451	
-3.18298	
-3.18146	
-3.18298	
-3.18298	
-3.17841	
-3.18146	
-3.17993	
-3.18146	
-3.18298	
-3.18604	
-3.18451	
-3.18451	
-3.18604	
-3.18604	
-3.18604	
-3.18604	
-3.18756	
-3.18604	
-3.18604	
-3.18298	
-3.18298	
-3.17993	
-3.18298	
-3.17841	
-3.17841	
-3.17993	
-3.17841	
-3.17993	
-3.17993	
-3.18298	
-3.18298	
-3.18146	
-3.18146	
-3.18146	
-3.18298	
-3.18146	
-3.17993	
-3.17688	
-3.17841	
-3.17841	
-3.17993	
-3.17535	
-3.17535	
-3.17841	
-3.17841	
-3.18451	
-3.18298	
-3.17841	
-3.17993	
-3.17993	
-3.17993	
-3.18298	
-3.17841	
-3.17688	
-3.17535	
-3.17688	
-3.17535	
-3.17383	
-3.17535	
-3.17688	
-3.17688	
-3.17688	
-3.17841	
-3.17688	
-3.17841	
-3.17688	
-3.17535	
-3.17688	
-3.17688	
-3.17535	
-3.17078	
-3.17078	
-3.17383	
-3.17535	
-3.16772	
-3.17383	
-3.17078	
-3.17383	
-3.17535	
-3.17078	
-3.17078	
-3.16925	
-3.17078	
-3.17078	
-3.17535	
-3.17078	
-3.16772	
-3.16925	
-3.16925	
-3.1662	
-3.16467	
-3.16467	
-3.16467	
-3.16772	
-3.1662	
-3.16772	
-3.1662	
-3.1662	
-3.16467	
-3.16467	
-3.16467	
-3.16315	
-3.16162	
-3.15704	
-3.1601	
-3.16162	
-3.15857	
-3.16315	
-3.1601	
-3.1601	
-3.1601	
-3.16315	
-3.16315	
-3.16315	
-3.16467	
-3.16315	
-3.16467	
-3.16315	
-3.16467	
-3.16467	
-3.1601	
-3.16467	
-3.1662	
-3.16772	
-3.1662	
-3.16772	
-3.16772	
-3.17383	
-3.17535	
-3.17383	
-3.17535	
-3.17688	
-3.17841	
-3.17688	
-3.17688	
-3.17078	
-3.17688	
-3.17535	
-3.16925	
-3.17078	
-3.17078	
-3.17383	
-3.17078	
-3.17078	
-3.16925	
-3.17383	
-3.17383	
-3.17078	
-3.16925	
-3.17078	
-3.16925	
-3.17078	
-3.16925	
-3.16772	
-3.16772	
-3.16467	
-3.16772	
-3.16467	
-3.1662	
-3.16467	
-3.16467	
-3.16772	
-3.16772	
-3.1662	
-3.16467	
-3.16467	
-3.16772	
-3.16315	
-3.16467	
-3.16315	
-3.16162	
-3.16315	
-3.16315	
-3.1601	
-3.1601	
-3.16315	
-3.16315	
-3.16467	
-3.16315	
-3.16315	
-3.16315	
-3.16467	
-3.1662	
-3.16162	
-3.16467	
-3.16162	
-3.15857	
-3.1601	
-3.16315	
-3.16162	
-3.16162	
-3.16315	
-3.16162	
-3.16162	
-3.16162	
-3.16467	
-3.16162	
-3.16162	
-3.16162	
-3.16467	
-3.16315	
-3.16467	
-3.16467	
-3.16315	
-3.16162	
-3.16162	
-3.1601	
-3.1601	
-3.16315	
-3.1601	
-3.1601	
-3.16467	
-3.16467	
-3.16467	
-3.16162	
-3.16315	
-3.16467	
-3.16315	
-3.16315	
-3.16315	
-3.16162	
-3.16162	
-3.15857	
-3.15552	
-3.15399	
-3.15857	
-3.15857	
-3.1601	
-3.16162	
-3.1601	
-3.16162	
-3.16162	
-3.16162	
-3.16162	
-3.16315	
-3.16162	
-3.15857	
-3.16162	
-3.15857	
-3.15704	
-3.15704	
-3.15704	
-3.15857	
-3.15857	
-3.16315	
-3.15857	
-3.16315	
-3.16162	
-3.16162	
-3.16162	
-3.1601	
-3.16162	
-3.16162	
-3.15704	
-3.15857	
-3.1601	
-3.15552	
-3.15247	
-3.15552	
-3.15552	
-3.15857	
-3.1601	
-3.1601	
-3.15857	
-3.15857	
-3.1601	
-3.15704	
-3.1601	
-3.15857	
-3.15399	
-3.15857	
-3.15552	
-3.15704	
-3.15704	
-3.15552	
-3.15399	
-3.15399	
-3.15552	
-3.15857	
-3.15704	
-3.15857	
-3.15857	
-3.1601	
-3.15704	
-3.15857	
-3.15552	
-3.15552	
-3.15552	
-3.15552	
-3.15399	
-3.15552	
-3.15552	
-3.15552	
-3.15247	
-3.15399	
-3.15857	
-3.15704	
-3.15552	
-3.15399	
-3.15704	
-3.15247	
-3.15552	
-3.15399	
-3.15399	
-3.15247	
-3.15247	
-3.15399	
-3.15247	
-3.15552	
-3.15247	
-3.15552	
-3.15704	
-3.15704	
-3.15552	
-3.15857	
-3.15399	
-3.15704	
-3.15399	
-3.15552	
-3.15704	
-3.15094	
-3.15552	
-3.15247	
-3.15247	
-3.14789	
-3.15247	
-3.15247	
-3.15552	
-3.15247	
-3.15704	
-3.15247	
-3.15704	
-3.15399	
-3.15704	
-3.15399	
-3.15399	
-3.15094	
-3.14789	
-3.14789	
-3.14941	
-3.14941	
-3.15094	
-3.15094	
-3.15247	
-3.15094	
-3.15399	
-3.14941	
-3.15247	
-3.15552	
-3.15247	
-3.15247	
-3.15247	
-3.15247	
-3.15247	
-3.14636	
-3.15094	
-3.14941	
-3.14636	
-3.14789	
-3.14941	
-3.14636	
-3.14941	
-3.15094	
-3.15247	
-3.15094	
-3.14789	
-3.14941	
-3.14636	
-3.14941	
-3.14789	
-3.14636	
-3.14331	
-3.14331	
-3.14484	
-3.14484	
-3.14331	
-3.14331	
-3.14789	
-3.14484	
-3.14636	
-3.14636	
-3.14636	
-3.14331	
-3.14484	
-3.14178	
-3.14178	
-3.13721	
-3.13721	
-3.13721	
-3.13568	
-3.13568	
-3.13568	
-3.13721	
-3.14178	
-3.13721	
-3.13721	
-3.13873	
-3.13873	
-3.14331	
-3.13873	
-3.13568	
-3.13873	
-3.13721	
-3.13416	
-3.13416	
-3.13416	
-3.13873	
-3.13416	
-3.13568	
-3.13568	
-3.13263	
-3.13721	
-3.13568	
-3.13873	
-3.13568	
-3.13416	
-3.13568	
-3.13416	
-3.13263	
-3.13416	
-3.13263	
-3.1311	
-3.1311	
-3.12805	
-3.12958	
-3.1311	
-3.1311	
-3.13263	
-3.13416	
-3.13263	
-3.13263	
-3.1311	
-3.13568	
-3.13568	
-3.13416	
-3.13416	
-3.1311	
-3.1311	
-3.12958	
-3.12958	
-3.13263	
-3.12958	
-3.13416	
-3.1311	
-3.1311	
-3.13416	
-3.13263	
-3.13416	
-3.13568	
-3.13568	
-3.13263	
-3.13568	
-3.13416	
-3.1311	
-3.12805	
-3.1311	
-3.13263	
-3.12958	
-3.1311	
-3.12958	
-3.12958	
-3.13416	
-3.14178	
-3.13263	
-3.13263	
-3.1311	
-3.13416	
-3.13416	
-3.12958	
-3.12805	
-3.12958	
-3.1311	
-3.13263	
-3.13263	
-3.1311	
-3.13263	
-3.12805	
-3.13263	
-3.1311	
-3.1311	
-3.12958	
-3.1311	
-3.13568	
-3.13416	
-3.1311	
-3.1311	
-3.12958	
-3.12958	
-3.1311	
-3.13263	
-3.1311	
-3.13263	
-3.13263	
-3.13263	
-3.13263	
-3.1311	
-3.13416	
-3.13416	
-3.13416	
-3.13568	
-3.13568	
-3.13416	
-3.13416	
-3.1311	
-3.12958	
-3.13263	
-3.13263	
-3.1311	
-3.13416	
-3.1311	
-3.13263	
-3.13416	
-3.13416	
-3.1311	
-3.13721	
-3.13568	
-3.13416	
-3.13721	
-3.13416	
-3.13721	
-3.13568	
-3.13568	
-3.13263	
-3.12958	
-3.13263	
-3.13416	
-3.13416	
-3.1311	
-3.13721	
-3.13721	
-3.13721	
-3.13873	
-3.13721	
-3.13568	
-3.13721	
-3.13568	
-3.13416	
-3.1311	
-3.1311	
-3.1311	
-3.1311	
-3.1311	
-3.13263	
-3.12958	
-3.13263	
-3.13416	
-3.13263	
-3.13568	
-3.13568	
-3.13263	
-3.13263	
-3.13721	
-3.13263	
-3.12958	
-3.13416	
-3.13416	
-3.13263	
-3.12805	
-3.13263	
-3.1311	
-3.13416	
-3.13263	
-3.13568	
-3.13416	
-3.13568	
-3.13263	
-3.13568	
-3.13263	
-3.13416	
-3.13416	
-3.1311	
-3.13416	
-3.13416	
-3.1311	
-3.12653	
-3.13263	
-3.12958	
-3.12958	
-3.13568	
-3.1311	
-3.13416	
-3.13416	
-3.13416	
-3.13263	
-3.13263	
-3.13263	
-3.1311	
-3.13263	
-3.1311	
-3.12805	
-3.1311	
-3.12958	
-3.12958	
-3.1311	
-3.1311	
-3.13263	
-3.13416	
-3.13263	
-3.13263	
-3.13263	
-3.13416	
-3.13568	
-3.13416	
-3.1311	
-3.12958	
-3.1311	
-3.1311	
-3.12958	
-3.13263	
-3.1311	
-3.13416	
-3.13721	
-3.1311	
-3.13416	
-3.13568	
-3.13263	
-3.13263	
-3.13263	
-3.13416	
-3.13263	
-3.12805	
-3.12958	
-3.13263	
-3.12958	
-3.1311	
-3.12958	
-3.1311	
-3.13416	
-3.1311	
-3.13416	
-3.1311	
-3.13263	
-3.13263	
-3.13263	
-3.1311	
-3.13263	
-3.1311	
-3.12805	
-3.12958	
-3.12653	
-3.12958	
-3.12958	
-3.12958	
-3.1311	
-3.13263	
-3.13568	
-3.12958	
-3.12958	
-3.1311	
-3.13416	
-3.13416	
-3.13263	
-3.13263	
-3.13263	
-3.13263	
-3.1311	
-3.13263	
-3.13263	
-3.13263	
-3.12958	
-3.1311	
-3.13416	
-3.13721	
-3.1311	
-3.13263	
-3.13263	
-3.1311	
-3.13263	
-3.13263	
-3.13263	
-3.1311	
-3.13263	
-3.13263	
-3.12958	
-3.12958	
-3.13568	
-3.12805	
-3.1311	
-3.1311	
-3.13263	
-3.12805	
-3.13263	
-3.1311	
-3.13263	
-3.1311	
-3.13263	
-3.12805	
-3.12958	
-3.12958	
-3.1311	
-3.12805	
-3.12958	
-3.1311	
-3.12958	
-3.12958	
-3.1311	
-3.13416	
-3.13263	
-3.1311	
-3.13568	
-3.1311	
-3.1311	
-3.13416	
-3.12805	
-3.12805	
-3.12805	
-3.12805	
-3.12805	
-3.12653	
-3.12805	
-3.1311	
-3.1311	
-3.13263	
-3.13263	
-3.13416	
-3.1311	
-3.13263	
-3.13263	
-3.13263	
-3.1311	
-3.12805	
-3.12805	
-3.13263	
-3.12805	
-3.125	
-3.12958	
-3.1311	
-3.12958	
-3.12958	
-3.13263	
-3.12958	
-3.1311	
-3.12958	
-3.12958	
-3.12958	
-3.12958	
-3.12653	
-3.125	
-3.12653	
-3.12653	
-3.12805	
-3.12805	
-3.12958	
-3.12805	
-3.1311	
-3.1311	
-3.12805	
-3.12958	
-3.13263	
-3.12958	
-3.12958	
-3.1311	
-3.1311	
-3.12805	
-3.12805	
-3.12958	
-3.1311	
-3.12653	
-3.12958	
-3.12805	
-3.1311	
-3.12958	
-3.12958	
-3.1311	
-3.12958	
-3.1311	
-3.1311	
-3.12958	
-3.13263	
-3.13416	
-3.1311	
-3.1311	
-3.1311	
-3.1311	
-3.12958	
-3.13263	
-3.1311	
-3.1311	
-3.13263	
-3.1311	
-3.12958	
-3.1311	
-3.13263	
-3.12958	
-3.12958	
-3.13263	
-3.1311	
-3.12958	
-3.12958	
-3.12805	
-3.12805	
-3.12805	
-3.12958	
-3.1311	
-3.13416	
-3.13263	
-3.13263	
-3.13416	
-3.13568	
-3.13416	
-3.13263	
-3.13416	
-3.13416	
-3.12958	
-3.1311	
-3.12653	
-3.12958	
-3.1311	
-3.12958	
-3.1311	
-3.1311	
-3.13416	
-3.13263	
-3.1311	
-3.13568	
-3.12958	
-3.13263	
-3.13568	
-3.13263	
-3.13263	
-3.12805	
-3.12958	
-3.13416	
-3.12958	
-3.12958	
-3.13416	
-3.1311	
-3.13263	
-3.1311	
-3.13416	
-3.1311	
-3.13416	
-3.13416	
-3.1311	
-3.1311	
-3.13263	
-3.1311	
-3.1311	
-3.12958	
-3.13263	
-3.13721	
-3.13416	
-3.13263	
-3.13568	
-3.14178	
-3.14178	
-3.14178	
-3.14331	
-3.14636	
-3.14484	
-3.14789	
-3.15094	
-3.14789	
-3.14636	
-3.14789	
-3.14331	
-3.14636	
-3.14636	
-3.14636	
-3.14636	
-3.14331	
-3.14789	
-3.15094	
-3.14789	
-3.14789	
-3.14484	
-3.14636	
-3.14636	
-3.14636	
-3.14331	
-3.14331	
-3.14331	
-3.14331	
-3.13721	
-3.14178	
-3.14178	
-3.13721	
-3.14178	
-3.14484	
-3.14636	
-3.14178	
-3.14331	
-3.14178	
-3.14178	
-3.14331	
-3.14178	
-3.14331	
-3.13721	
-3.13721	
-3.14178	
-3.13873	
-3.13873	
-3.13568	
-3.13721	
-3.13721	
-3.14178	
-3.14178	
-3.13873	
-3.14331	
-3.13873	
-3.13873	
-3.14178	
-3.13873	
-3.13416	
-3.13568	
-3.13263	
-3.13568	
-3.13873	
-3.13873	
-3.13568	
-3.13721	
-3.13721	
-3.14331	
-3.13721	
-3.14331	
-3.13873	
-3.14331	
-3.14178	
-3.14178	
-3.14178	
-3.13568	
-3.13416	
-3.13873	
-3.13873	
-3.13873	
-3.13568	
-3.13568	
-3.13873	
-3.14178	
-3.13873	
-3.14331	
-3.14331	
-3.14331	
-3.14331	
-3.14178	
-3.14178	
-3.13721	
-3.14331	
-3.14331	
-3.13873	
-3.14178	
-3.14178	
-3.14178	
-3.13873	
-3.13721	
-3.13721	
-3.14178	
-3.14178	
-3.14636	
-3.14484	
-3.14636	
-3.14484	
-3.14636	
-3.14331	
-3.13873	
-3.14331	
-3.14178	
-3.13873	
-3.14484	
-3.14484	
-3.14331	
-3.13873	
-3.14636	
-3.14636	
-3.14331	
-3.14484	
-3.14636	
-3.14636	
-3.14636	
-3.14484	
-3.14331	
-3.14331	
-3.14331	
-3.14331	
-3.14331	
-3.14636	
-3.14331	
-3.14484	
-3.14789	
-3.14789	
-3.14789	
-3.14636	
-3.14941	
-3.14789	
-3.14941	
-3.14789	
-3.14636	
-3.14636	
-3.14636	
-3.14941	
-3.14789	
-3.14789	
-3.14941	
-3.14789	
-3.14941	
-3.14941	
-3.14789	
-3.14941	
-3.15399	
-3.14941	
-3.14941	
-3.15094	
-3.15094	
-3.15247	
-3.14789	
-3.14789	
-3.14636	
-3.14636	
-3.15094	
-3.14941	
-3.15094	
-3.14941	
-3.15247	
-3.15094	
-3.14941	
-3.14941	
-3.15094	
-3.15247	
-3.15247	
-3.15399	
-3.15094	
-3.14941	
-3.15247	
-3.14636	
-3.15094	
-3.14941	
-3.14789	
-3.15094	
-3.15552	
-3.15399	
-3.15399	
-3.15247	
-3.15094	
-3.15247	
-3.15399	
-3.15247	
-3.15399	
-3.14789	
-3.15094	
-3.15094	
-3.14941	
-3.15094	
-3.15247	
-3.14941	
-3.15399	
-3.15552	
-3.15247	
-3.15094	
-3.15552	
-3.15552	
-3.15247	
-3.15704	
-3.15399	
-3.15094	
-3.14789	
-3.14941	
-3.14789	
-3.15094	
-3.15094	
-3.15094	
-3.15552	
-3.15247	
-3.15247	
-3.15399	
-3.15094	
-3.15247	
-3.15247	
-3.15399	
-3.15552	
-3.15094	
-3.14789	
-3.15399	
-3.15247	
-3.14941	
-3.14941	
-3.15094	
-3.15094	
-3.14941	
-3.15552	
-3.15247	
-3.15247	
-3.15399	
-3.15399	
-3.15247	
-3.15094	
-3.15247	
-3.15094	
-3.14789	
-3.15247	
-3.15247	
-3.14941	
-3.15247	
-3.15247	
-3.15247	
-3.15247	
-3.15399	
-3.15247	
-3.14941	
-3.15552	
-3.15247	
-3.15399	
-3.15247	
-3.15399	
-3.15247	
-3.15247	
-3.14941	
-3.15247	
-3.15247	
-3.15704	
-3.15399	
-3.15247	
-3.15399	
-3.15552	
-3.15552	
-3.15399	
-3.15552	
-3.15552	
-3.15552	
-3.15704	
-3.15247	
-3.15399	
-3.14941	
-3.15399	
-3.15247	
-3.14789	
-3.14941	
-3.15094	
-3.14789	
-3.15247	
-3.15399	
-3.15247	
-3.15094	
-3.15399	
-3.15399	
-3.15552	
-3.15247	
-3.15094	
-3.14789	
-3.14941	
-3.14941	
-3.15094	
-3.14789	
-3.15247	
-3.14636	
-3.14941	
-3.14941	
-3.15094	
-3.14636	
-3.15399	
-3.14941	
-3.15094	
-3.15247	
-3.14789	
-3.14941	
-3.14636	
-3.14636	
-3.14789	
-3.14636	
-3.14636	
-3.14636	
-3.14636	
-3.14789	
-3.14789	
-3.14789	
-3.14636	
-3.14789	
-3.14789	
-3.14789	
-3.14789	
-3.14636	
-3.14331	
-3.14636	
-3.14484	
-3.14331	
-3.14178	
-3.14331	
-3.14178	
-3.14331	
-3.14178	
-3.14331	
-3.14331	
-3.14636	
-3.14484	
-3.14484	
-3.14484	
-3.14178	
-3.13721	
-3.14178	
-3.14331	
-3.14178	
-3.13873	
-3.14331	
-3.13721	
-3.13568	
-3.13873	
-3.13873	
-3.13568	
-3.13416	
-3.13721	
-3.13568	
-3.13416	
-3.13721	
-3.13721	
-3.13568	
-3.1311	
-3.13416	
-3.13416	
-3.13416	
-3.13721	
-3.13721	
-3.14331	
-3.14331	
-3.15094	
-3.14789	
-3.14636	
-3.14789	
-3.14331	
-3.14331	
-3.14636	
-3.13873	
-3.13873	
-3.13721	
-3.14178	
-3.13873	
-3.13568	
-3.13873	
-3.13568	
-3.13721	
-3.13721	
-3.13873	
-3.14178	
-3.13873	
-3.14331	
-3.13721	
-3.13873	
-3.13568	
-3.13721	
-3.13416	
-3.13416	
-3.13416	
-3.13721	
-3.13568	
-3.13263	
-3.13721	
-3.13873	
-3.13873	
-3.13873	
-3.13721	
-3.14178	
-3.13873	
-3.14178	
-3.13873	
-3.13568	
-3.13263	
-3.13568	
-3.13568	
-3.13568	
-3.13568	
-3.13568	
-3.13568	
-3.13416	
-3.13568	
-3.13873	
-3.13416	
-3.13416	
-3.13263	
-3.13263	
-3.13568	
-3.13263	
-3.13263	
-3.13263	
-3.13263	
-3.13263	
-3.1311	
-3.13568	
-3.13416	
-3.13416	
-3.13263	
-3.13568	
-3.13416	
-3.13721	
-3.13416	
-3.13721	
-3.13721	
-3.13416	
-3.13568	
-3.1311	
-3.1311	
-3.13416	
-3.13263	
-3.1311	
-3.1311	
-3.13263	
-3.1311	
-3.1311	
-3.13416	
-3.13416	
-3.13263	
-3.13263	
-3.13721	
-3.13721	
-3.13568	
-3.13263	
-3.1311	
-3.12805	
-3.12958	
-3.1311	
-3.12958	
-3.13263	
-3.13416	
-3.1311	
-3.13263	
-3.13568	
-3.13568	
-3.13568	
-3.12958	
-3.13568	
-3.12958	
-3.13416	
-3.1311	
-3.13263	
-3.12805	
-3.12958	
-3.1311	
-3.12958	
-3.12958	
-3.12958	
-3.12958	
-3.13263	
-3.13263	
-3.1311	
-3.13416	
-3.13263	
-3.13263	
-3.13568	
-3.13416	
-3.13568	
-3.13263	
-3.13263	
-3.12958	
-3.1311	
-3.12958	
-3.13416	
-3.1311	
-3.13416	
-3.13721	
-3.1311	
-3.13263	
-3.13263	
-3.13263	
-3.13263	
-3.13568	
-3.13263	
-3.1311	
-3.1311	
-3.1311	
-3.13416	
-3.1311	
-3.13568	
-3.13416	
-3.13263	
-3.13416	
-3.13263	
-3.13416	
-3.13721	
-3.13263	
-3.13416	
-3.13263	
-3.13263	
-3.1311	
-3.1311	
-3.13263	
-3.1311	
-3.1311	
-3.1311	
-3.1311	
-3.13263	
-3.1311	
-3.13416	
-3.13416	
-3.13873	
-3.13721	
-3.13568	
-3.13263	
-3.13263	
-3.13568	
-3.1311	
-3.12958	
-3.13416	
-3.13263	
-3.13263	
-3.13416	
-3.13416	
-3.13416	
-3.13416	
-3.13416	
-3.13416	
-3.13263	
-3.13721	
-3.13568	
-3.13263	
-3.13416	
-3.13416	
-3.1311	
-3.12958	
-3.1311	
-3.13263	
-3.1311	
-3.13263	
-3.13263	
-3.13568	
-3.13416	
-3.13721	
-3.13721	
-3.13568	
-3.13721	
-3.13568	
-3.13721	
-3.13568	
-3.13568	
-3.13416	
-3.13416	
-3.13416	
-3.13721	
-3.13568	
-3.13568	
-3.1311	
-3.13568	
-3.13873	
-3.14178	
-3.14178	
-3.14331	
-3.13873	
-3.13721	
-3.13873	
-3.13873	
-3.13721	
-3.13416	
-3.13568	
-3.13873	
-3.13568	
-3.14178	
-3.13416	
-3.13568	
-3.13721	
-3.14178	
-3.13721	
-3.13721	
-3.14331	
-3.14484	
-3.14178	
-3.13873	
-3.13873	
-3.13873	
-3.13873	
-3.13873	
-3.13721	
-3.14178	
-3.13873	
-3.13721	
-3.14178	
-3.13873	
-3.14331	
-3.13873	
-3.14178	
-3.14331	
-3.13721	
-3.13568	
-3.13873	
-3.13873	
-3.13721	
-3.13721	
-3.14178	
-3.13721	
-3.13873	
-3.13873	
-3.13873	
-3.13873	
-3.14178	
-3.14484	
-3.13873	
-3.13721	
-3.13873	
-3.13416	
-3.13873	
-3.13721	
-3.13873	
-3.13568	
-3.13721	
-3.13416	
-3.13721	
-3.13568	
-3.13568	
-3.13416	
-3.13416	
-3.13721	
-3.13416	
-3.13416	
-3.13416	
-3.13416	
-3.13721	
-3.13873	
-3.13873	
-3.13263	
-3.12958	
-3.1311	
-3.1311	
-3.1311	
-3.13416	
-3.13416	
-3.13263	
-3.13721	
-3.13721	
-3.1311	
-3.13721	
-3.13568	
-3.13568	
-3.13721	
-3.13416	
-3.12958	
-3.12653	
-3.12958	
-3.12958	
-3.12805	
-3.125	
-3.12805	
-3.12958	
-3.12958	
-3.125	
-3.12958	
-3.12958	
-3.12958	
-3.1311	
-3.125	
-3.1311	
-3.13263	
-3.13263	
-3.13416	
-3.13416	
-3.13263	
-3.13263	
-3.13263	
-3.13416	
-3.12958	
-3.13263	
-3.12958	
-3.1311	
-3.13263	
-3.13416	
-3.13263	
-3.1311	
-3.1311	
-3.13263	
-3.12958	
-3.12805	
-3.1311	
-3.13263	
-3.12958	
-3.13263	
-3.13416	
-3.13568	
-3.13873	
-3.13873	
-3.13873	
-3.13873	
-3.14484	
-3.14178	
-3.14178	
-3.14484	
-3.14178	
-3.13721	
-3.13873	
-3.13873	
-3.13568	
-3.13721	
-3.13721	
-3.13568	
-3.14331	
-3.13721	
-3.14178	
-3.13568	
-3.13721	
-3.13568	
-3.13568	
-3.13721	
-3.13416	
-3.13568	
-3.12958	
-3.13568	
-3.13263	
-3.12958	
-3.13263	
-3.13263	
-3.1311	
-3.13416	
-3.1311	
-3.13416	
-3.12958	
-3.13263	
-3.1311	
-3.13263	
-3.12958	
-3.12958	
-3.12653	
-3.12653	
-3.12653	
-3.12347	
-3.12347	
-3.125	
-3.12195	
-3.125	
-3.12347	
-3.125	
-3.12347	
-3.12347	
-3.12653	
-3.12347	
-3.125	
-3.125	
-3.12042	
-3.12347	
-3.12195	
-3.12042	
-3.125	
-3.11737	
-3.1189	
-3.1189	
-3.12042	
-3.12195	
-3.12195	
-3.125	
-3.12195	
-3.12042	
-3.12195	
-3.12195	
-3.12347	
-3.12042	
-3.11737	
-3.1189	
-3.1189	
-3.1189	
-3.12195	
-3.12042	
-3.12042	
-3.12347	
-3.12042	
-3.125	
-3.12042	
-3.12195	
-3.12195	
-3.125	
-3.12347	
-3.12347	
-3.12042	
-3.11737	
-3.11432	
-3.11432	
-3.11737	
-3.1189	
-3.1189	
-3.11737	
-3.11584	
-3.11737	
-3.1189	
-3.12042	
-3.1189	
-3.1189	
-3.1189	
-3.12042	
-3.11737	
-3.12042	
-3.11737	
-3.11737	
-3.11737	
-3.11432	
-3.1189	
-3.1189	
-3.1189	
-3.11737	
-3.12042	
-3.11584	
-3.11737	
-3.11737	
-3.11737	
-3.11584	
-3.11584	
-3.11432	
-3.11432	
-3.11737	
-3.11584	
-3.11432	
-3.11127	
-3.11432	
-3.1189	
-3.11737	
-3.11737	
-3.1189	
-3.11432	
-3.11584	
-3.11584	
-3.11737	
-3.11737	
-3.12042	
-3.11432	
-3.11432	
-3.10822	
-3.11279	
-3.11127	
-3.11127	
-3.11432	
-3.11432	
-3.11127	
-3.11279	
-3.11432	
-3.11432	
-3.11432	
-3.11432	
-3.11432	
-3.11737	
-3.11432	
-3.10822	
-3.10822	
-3.10822	
-3.10822	
-3.10669	
-3.10822	
-3.10669	
-3.10822	
-3.11279	
-3.11127	
-3.11432	
-3.11432	
-3.11127	
-3.11127	
-3.10822	
-3.11279	
-3.11127	
-3.10669	
-3.11127	
-3.10669	
-3.10822	
-3.10822	
-3.10822	
-3.10669	
-3.10669	
-3.10822	
-3.10669	
-3.10669	
-3.10516	
-3.10669	
-3.11279	
-3.11127	
-3.11127	
-3.10669	
-3.10516	
-3.10669	
-3.10516	
-3.10669	
-3.10669	
-3.10669	
-3.10669	
-3.10822	
-3.10822	
-3.10669	
-3.10822	
-3.10516	
-3.11127	
-3.10516	
-3.10516	
-3.09906	
-3.10211	
-3.10211	
-3.10516	
-3.10059	
-3.10211	
-3.10364	
-3.10211	
-3.10364	
-3.10364	
-3.10516	
-3.10211	
-3.10516	
-3.10516	
-3.10059	
-3.10211	
-3.10059	
-3.10211	
-3.09906	
-3.09753	
-3.10059	
-3.09906	
-3.09753	
-3.10059	
-3.10211	
-3.10364	
-3.10516	
-3.10669	
-3.10364	
-3.10211	
-3.10211	
-3.10364	
-3.10364	
-3.10364	
-3.09906	
-3.10364	
-3.10059	
-3.09753	
-3.10059	
-3.10059	
-3.10059	
-3.10211	
-3.10516	
-3.10516	
-3.10516	
-3.10211	
-3.10364	
-3.10364	
-3.10211	
-3.10364	
-3.10059	
-3.09753	
-3.10211	
-3.10059	
-3.09753	
-3.09906	
-3.10059	
-3.09753	
-3.09906	
-3.10211	
-3.10059	
-3.10059	
-3.10364	
-3.10211	
-3.10364	
-3.10059	
-3.10211	
-3.09906	
-3.09601	
-3.09906	
-3.10059	
-3.09753	
-3.09753	
-3.09906	
-3.09906	
-3.09753	
-3.10059	
-3.09753	
-3.09906	
-3.10059	
-3.10059	
-3.10364	
-3.10059	
-3.09906	
-3.09906	
-3.09601	
-3.09906	
-3.09601	
-3.09906	
-3.09753	
-3.09906	
-3.10059	
-3.09906	
-3.09906	
-3.09753	
-3.09906	
-3.09906	
-3.09601	
-3.09906	
-3.10059	
-3.09753	
-3.09601	
-3.09753	
-3.09753	
-3.09753	
-3.09753	
-3.09906	
-3.09906	
-3.09906	
-3.09906	
-3.10059	
-3.09906	
-3.10059	
-3.09753	
-3.09906	
-3.09601	
-3.09753	
-3.09601	
-3.09448	
-3.09753	
-3.09753	
-3.09601	
-3.09601	
-3.09906	
-3.09601	
-3.09906	
-3.09906	
-3.10059	
-3.09906	
-3.09753	
-3.09906	
-3.09906	
-3.10059	
-3.09601	
-3.09601	
-3.09448	
-3.09601	
-3.09296	
-3.09448	
-3.09601	
-3.09448	
-3.09753	
-3.09601	
-3.09906	
-3.09906	
-3.09906	
-3.10059	
-3.10059	
-3.09906	
-3.09601	
-3.09601	
-3.09448	
-3.09448	
-3.09448	
-3.09296	
-3.09448	
-3.09601	
-3.09296	
-3.09448	
-3.09296	
-3.09601	
-3.09753	
-3.09448	
-3.09906	
-3.09601	
-3.09601	
-3.09448	
-3.09448	
-3.09296	
-3.09143	
-3.09143	
-3.09143	
-3.09143	
-3.09296	
-3.09143	
-3.09448	
-3.09143	
-3.09601	
-3.09296	
-3.09448	
-3.09601	
-3.09601	
-3.09296	
-3.09296	
-3.09448	
-3.09448	
-3.09143	
-3.09296	
-3.09143	
-3.09143	
-3.09143	
-3.09296	
-3.09143	
-3.09296	
-3.09448	
-3.09143	
-3.09296	
-3.0899	
-3.09143	
-3.09296	
-3.0899	
-3.08838	
-3.08838	
-3.08838	
-3.0899	
-3.0899	
-3.0899	
-3.08838	
-3.09143	
-3.0899	
-3.0899	
-3.0899	
-3.09296	
-3.09143	
-3.0899	
-3.0899	
-3.08838	
-3.08685	
-3.08838	
-3.0899	
-3.0899	
-3.08685	
-3.09143	
-3.0899	
-3.0899	
-3.0899	
-3.0899	
-3.09143	
-3.08685	
-3.0899	
-3.08838	
-3.08838	
-3.09143	
-3.08685	
-3.08685	
-3.0838	
-3.08533	
-3.08533	
-3.08533	
-3.08228	
-3.08533	
-3.08533	
-3.0838	
-3.08838	
-3.08533	
-3.08533	
-3.0838	
-3.08685	
-3.0838	
-3.08685	
-3.0838	
-3.08533	
-3.08685	
-3.08685	
-3.0838	
-3.08228	
-3.0838	
-3.08228	
-3.08228	
-3.0838	
-3.08533	
-3.0838	
-3.08533	
-3.08533	
-3.08533	
-3.08228	
-3.08228	
-3.08075	
-3.07617	
-3.08075	
-3.07922	
-3.08228	
-3.0838	
-3.0838	
-3.08075	
-3.08228	
-3.08075	
-3.08228	
-3.08075	
-3.0838	
-3.08228	
-3.0838	
-3.07922	
-3.08075	
-3.07922	
-3.08075	
-3.07922	
-3.07617	
-3.07922	
-3.07617	
-3.07922	
-3.08228	
-3.08075	
-3.07922	
-3.08075	
-3.07922	
-3.07922	
-3.07617	
-3.07922	
-3.08228	
-3.07617	
-3.07465	
-3.07312	
-3.07617	
-3.07312	
-3.07617	
-3.07617	
-3.07465	
-3.07617	
-3.07617	
-3.07617	
-3.07617	
-3.07617	
-3.08075	
-3.07922	
-3.07922	
-3.07617	
-3.07465	
-3.07159	
-3.07617	
-3.07465	
-3.07312	
-3.07312	
-3.07465	
-3.07159	
-3.07465	
-3.07312	
-3.07465	
-3.07312	
-3.07312	
-3.07312	
-3.07617	
-3.07159	
-3.07159	
-3.06854	
-3.06854	
-3.07007	
-3.06854	
-3.06854	
-3.06854	
-3.07159	
-3.06854	
-3.07312	
-3.07159	
-3.07159	
-3.07159	
-3.07159	
-3.07159	
-3.07159	
-3.07159	
-3.06854	
-3.06854	
-3.06854	
-3.07159	
-3.07007	
-3.06854	
-3.06702	
-3.06854	
-3.06854	
-3.07007	
-3.06854	
-3.06854	
-3.07159	
-3.06854	
-3.07007	
-3.06549	
-3.06702	
-3.06702	
-3.06396	
-3.06244	
-3.06244	
-3.06549	
-3.06396	
-3.06549	
-3.06244	
-3.06396	
-3.06396	
-3.06396	
-3.06702	
-3.06854	
-3.06702	
-3.06702	
-3.06854	
-3.06549	
-3.06396	
-3.06549	
-3.06396	
-3.06244	
-3.06244	
-3.06396	
-3.06702	
-3.06854	
-3.06854	
-3.06702	
-3.07007	
-3.06854	
-3.07159	
-3.07159	
-3.07465	
-3.07159	
-3.07159	
-3.07159	
-3.06702	
-3.07159	
-3.07007	
-3.06854	
-3.06854	
-3.06854	
-3.06854	
-3.06702	
-3.06854	
-3.07007	
-3.06702	
-3.07007	
-3.07007	
-3.06854	
-3.07007	
-3.06702	
-3.06396	
-3.06396	
-3.06702	
-3.06549	
-3.06549	
-3.06549	
-3.06702	
-3.06549	
-3.06702	
-3.06549	
-3.06549	
-3.06702	
-3.06549	
-3.06702	
-3.06854	
-3.06549	
-3.06549	
-3.06549	
-3.06549	
-3.06396	
-3.06244	
-3.06091	
-3.06396	
-3.06396	
-3.06549	
-3.06854	
-3.06549	
-3.06396	
-3.06549	
-3.06549	
-3.06702	
-3.06549	
-3.06244	
-3.06244	
-3.06244	
-3.06396	
-3.06244	
-3.06091	
-3.06091	
-3.06091	
-3.06244	
-3.06702	
-3.06549	
-3.06549	
-3.06549	
-3.06549	
-3.06244	
-3.06396	
-3.06244	
-3.06244	
-3.06091	
-3.06091	
-3.05939	
-3.05786	
-3.06091	
-3.06091	
-3.06244	
-3.06396	
-3.06244	
-3.06396	
-3.06091	
-3.05939	
-3.06091	
-3.06091	
-3.06244	
-3.06244	
-3.05939	
-3.05786	
-3.06091	
-3.05786	
-3.05939	
-3.05786	
-3.06091	
-3.06091	
-3.06244	
-3.06244	
-3.05939	
-3.06091	
-3.05939	
-3.05939	
-3.06091	
-3.06244	
-3.05939	
-3.05939	
-3.06091	
-3.05634	
-3.05939	
-3.05786	
-3.05786	
-3.05634	
-3.05939	
-3.05939	
-3.06091	
-3.05634	
-3.06091	
-3.05786	
-3.05939	
-3.05634	
-3.05176	
-3.05328	
-3.04871	
-3.05023	
-3.05176	
-3.05328	
-3.05176	
-3.05176	
-3.05176	
-3.05634	
-3.05481	
-3.05328	
-3.05328	
-3.05481	
-3.05176	
-3.05328	
-3.05328	
-3.05176	
-3.04871	
-3.05176	
-3.04871	
-3.05023	
-3.05328	
-3.05328	
-3.05481	
-3.05786	
-3.05786	
-3.05786	
-3.06091	
-3.06091	
-3.06091	
-3.06244	
-3.06396	
-3.06702	
-3.06549	
-3.06549	
-3.06702	
-3.06549	
-3.06549	
-3.06396	
-3.06549	
-3.06549	
-3.06396	
-3.06396	
-3.06549	
-3.06549	
-3.06702	
-3.06702	
-3.06854	
-3.06549	
-3.06244	
-3.06091	
-3.05939	
-3.05939	
-3.05939	
-3.05786	
-3.05786	
-3.05786	
-3.05786	
-3.05939	
-3.05786	
-3.05481	
-3.05634	
-3.05481	
-3.05634	
-3.05634	
-3.05634	
-3.05481	
-3.05481	
-3.05176	
-3.05176	
-3.05328	
-3.05328	
-3.04871	
-3.05176	
-3.05023	
-3.05176	
-3.05481	
-3.05328	
-3.05176	
-3.05023	
-3.04871	
-3.04871	
-3.05176	
-3.04718	
-3.04871	
-3.04718	
-3.04871	
-3.04871	
-3.04718	
-3.04413	
-3.04871	
-3.04871	
-3.05023	
-3.05023	
-3.05023	
-3.05176	
-3.04871	
-3.05023	
-3.04871	
-3.04718	
-3.04718	
-3.04413	
-3.04413	
-3.04871	
-3.04718	
-3.04718	
-3.04871	
-3.04413	
-3.05023	
-3.04871	
-3.04871	
-3.04413	
-3.04871	
-3.04871	
-3.04871	
-3.05023	
-3.0426	
-3.04108	
-3.0426	
-3.0426	
-3.0426	
-3.0426	
-3.0426	
-3.03955	
-3.0426	
-3.04108	
-3.04108	
-3.04108	
-3.03955	
-3.0426	
-3.04718	
-3.03955	
-3.0426	
-3.04108	
-3.04108	
-3.03955	
-3.04108	
-3.03955	
-3.03955	
-3.03802	
-3.04108	
-3.04108	
-3.03955	
-3.04108	
-3.0426	
-3.04413	
-3.0426	
-3.04108	
-3.04108	
-3.03955	
-3.03802	
-3.0365	
-3.0365	
-3.0365	
-3.03802	
-3.03802	
-3.03802	
-3.03497	
-3.03802	
-3.03802	
-3.04108	
-3.03955	
-3.04108	
-3.03802	
-3.03802	
-3.03955	
-3.0365	
-3.03497	
-3.03497	
-3.03497	
-3.03345	
-3.03497	
-3.03345	
-3.03345	
-3.03497	
-3.03345	
-3.03955	
-3.03345	
-3.03497	
-3.03497	
-3.0365	
-3.03192	
-3.03802	
-3.0365	
-3.03497	
-3.03192	
-3.0365	
-3.03345	
-3.03345	
-3.03497	
-3.03192	
-3.03345	
-3.03497	
-3.03497	
-3.03345	
-3.03802	
-3.03345	
-3.03497	
-3.03345	
-3.03192	
-3.03497	
-3.02887	
-3.0304	
-3.0304	
-3.02887	
-3.03192	
-3.0304	
-3.0304	
-3.03192	
-3.03345	
-3.03192	
-3.0304	
-3.03345	
-3.0304	
-3.03345	
-3.0304	
-3.02887	
-3.0304	
-3.02734	
-3.0304	
-3.02887	
-3.02887	
-3.02582	
-3.02887	
-3.0304	
-3.02734	
-3.03192	
-3.03192	
-3.03192	
-3.02887	
-3.0304	
-3.02887	
-3.0304	
-3.0304	
-3.02734	
-3.02582	
-3.02734	
-3.02734	
-3.02734	
-3.02429	
-3.02734	
-3.02734	
-3.02887	
-3.02887	
-3.02887	
-3.0304	
-3.02887	
-3.02887	
-3.02887	
-3.02582	
-3.02734	
-3.02582	
-3.02429	
-3.02429	
-3.02124	
-3.02734	
-3.02429	
-3.02124	
-3.02277	
-3.02277	
-3.02582	
-3.02429	
-3.02887	
-3.0304	
-3.0304	
-3.02582	
-3.02582	
-3.02277	
-3.02277	
-3.02124	
-3.02124	
-3.02124	
-3.01971	
-3.01971	
-3.02124	
-3.02429	
-3.02124	
-3.02277	
-3.02124	
-3.02734	
-3.02582	
-3.02429	
-3.02582	
-3.02124	
-3.02429	
-3.01971	
-3.02429	
-3.02277	
-3.02277	
-3.01971	
-3.02124	
-3.02429	
-3.02582	
-3.02582	
-3.02429	
-3.02582	
-3.02734	
-3.02582	
-3.02124	
-3.02277	
-3.02277	
-3.01971	
-3.01971	
-3.01971	
-3.02124	
-3.02124	
-3.02124	
-3.02124	
-3.02124	
-3.02277	
-3.02429	
-3.02124	
-3.02277	
-3.02582	
-3.02429	
-3.02124	
-3.02429	
-3.02124	
-3.01971	
-3.01971	
-3.01666	
-3.02277	
-3.01819	
-3.01666	
-3.02124	
-3.01971	
-3.02277	
-3.02124	
-3.02124	
-3.01971	
-3.02124	
-3.01666	
-3.01819	
-3.01819	
-3.01819	
-3.01514	
-3.01666	
-3.01666	
-3.01666	
-3.01666	
-3.01666	
-3.01514	
-3.02124	
-3.01971	
-3.01971	
-3.01819	
-3.01971	
-3.01971	
-3.01971	
-3.02124	
-3.02124	
-3.01666	
-3.01666	
-3.01666	
-3.01666	
-3.01514	
-3.01666	
-3.01514	
-3.01666	
-3.01819	
-3.01666	
-3.01666	
-3.01819	
-3.01666	
-3.01514	
-3.01971	
-3.01666	
-3.01514	
-3.01514	
-3.01208	
-3.01208	
-3.01666	
-3.01514	
-3.01666	
-3.01208	
-3.01666	
-3.01971	
-3.01819	
-3.01514	
-3.01819	
-3.01514	
-3.01208	
-3.01666	
-3.01514	
-3.01514	
-3.01666	
-3.01056	
-3.01514	
-3.01208	
-3.01514	
-3.01666	
-3.01208	
-3.01819	
-3.01666	
-3.01514	
-3.01971	
-3.01666	
-3.01819	
-3.01514	
-3.01514	
-3.01056	
-3.00903	
-3.00903	
-3.01208	
-3.01056	
-3.01056	
-3.01056	
-3.01056	
-3.01208	
-3.01208	
-3.01666	
-3.01514	
-3.01208	
-3.01514	
-3.01666	
-3.01514	
-3.01666	
-3.01208	
-3.01056	
-3.01056	
-3.01514	
-3.00903	
-3.01056	
-3.01514	
-3.01208	
-3.01056	
-3.01666	
-3.01056	
-3.01056	
-3.01666	
-3.01666	
-3.01208	
-3.01819	
-3.01514	
-3.00751	
-3.01056	
-3.00751	
-3.00751	
-3.00598	
-3.00598	
-3.00446	
-3.00903	
-3.00903	
-3.00903	
-3.00903	
-3.00751	
-3.00598	
-3.00751	
-3.00903	
-3.00903	
-3.00598	
-3.00446	
-3.00751	
-3.00598	
-3.00598	
-3.00598	
-3.00751	
-3.00293	
-3.00446	
-3.00598	
-3.00751	
-3.00903	
-3.00903	
-3.00751	
-3.00598	
-3.00903	
-3.00903	
-3.00751	
-3.00751	
-3.00598	
-3.00751	
-3.00598	
-3.00446	
-3.00751	
-3.00751	
-3.00446	
-3.00598	
-3.00751	
-3.00751	
-3.00293	
-3.00598	
-3.00293	
-3.00293	
-3.0014	
-2.99988	
-2.99988	
-3.00293	
-2.99988	
-2.99835	
-2.99988	
-3.0014	
-2.99988	
-3.0014	
-3.00293	
-3.00446	
-3.01056	
-3.00903	
-3.01514	
-3.00903	
-3.00598	
-3.00751	
-3.00751	
-3.00598	
-3.00751	
-3.00598	
-3.00751	
-3.00751	
-3.00903	
-3.00446	
-3.00598	
-3.00598	
-3.00598	
-3.00751	
-3.00751	
-3.00751	
-3.00598	
-3.00598	
-3.00293	
-2.99835	
-3.0014	
-3.00293	
-3.00293	
-3.00446	
-3.0014	
-3.0014	
-3.00293	
-3.00293	
-3.00446	
-3.00446	
-3.00293	
-3.00446	
-3.00293	
-3.00446	
-3.00446	
-2.99988	
-2.99988	
-2.99988	
-2.99988	
-2.99835	
-2.99683	
-2.99683	
-2.99988	
-3.00293	
-2.99988	
-3.0014	
-3.0014	
-3.00446	
-3.00293	
-3.0014	
-3.00446	
-2.99835	
-2.99835	
-2.99988	
-3.0014	
-2.99835	
-2.99835	
-3.00293	
-2.99835	
-2.99988	
-3.00293	
-3.0014	
-2.99988	
-2.99988	
-3.0014	
-2.99835	
-3.00293	
-3.0014	
-3.0014	
-2.99835	
-2.99988	
-2.99835	
-2.99835	
-2.99835	
-2.99835	
-2.99988	
-2.99835	
-2.99988	
-2.99988	
-2.99683	
-2.99683	
-2.99835	
-2.99683	
-3.0014	
-3.0014	
-2.99683	
-2.99835	
-2.99683	
-2.9953	
-2.9953	
-2.99683	
-2.99835	
-2.99988	
-2.99988	
-2.99835	
-2.99835	
-3.00293	
-3.0014	
-2.99988	
-2.99683	
-2.9953	
-2.99683	
-2.99377	
-2.99683	
-2.99683	
-2.99377	
-2.99377	
-2.99683	
-2.99683	
-2.9953	
-2.99683	
-2.99683	
-2.99988	
-2.99988	
-2.99835	
-2.99835	
-2.99835	
-2.99988	
-2.99377	
-2.99377	
-2.9953	
-2.99225	
-2.9953	
-2.99225	
-2.99377	
-2.99225	
-2.99377	
-2.99835	
-2.99377	
-2.9953	
-2.99377	
-2.99377	
-2.9953	
-2.99683	
-2.9953	
-2.99072	
-2.99377	
-2.99072	
-2.99377	
-2.99225	
-2.99225	
-2.9953	
-2.99377	
-2.99225	
-2.9953	
-2.99225	
-2.9953	
-2.9953	
-2.9953	
-2.99225	
-2.99377	
-2.9892	
-2.98767	
-2.9892	
-2.9892	
-2.9892	
-2.9892	
-2.9892	
-2.98767	
-2.9892	
-2.9892	
-2.99377	
-2.99225	
-2.99072	
-2.9953	
-2.99377	
-2.99377	
-2.99377	
-2.98767	
-2.99225	
-2.99072	
-2.9892	
-2.9892	
-2.9892	
-2.99072	
-2.99072	
-2.98767	
-2.9892	
-2.9892	
-2.99072	
-2.99072	
-2.99072	
-2.99072	
-2.99225	
-2.99072	
-2.98462	
-2.98767	
-2.98615	
-2.98767	
-2.98767	
-2.9892	
-2.98615	
-2.98615	
-2.99225	
-2.99072	
-2.9892	
-2.9892	
-2.99072	
-2.99072	
-2.9892	
-2.9892	
-2.9892	
-2.98615	
-2.9892	
-2.99072	
-2.98767	
-2.98767	
-2.99072	
-2.99072	
-2.9892	
-2.9892	
-2.99072	
-2.9892	
-2.99072	
-2.99072	
-2.98767	
-2.99072	
-2.98615	
-2.98462	
-2.98309	
-2.98462	
-2.98004	
-2.98004	
-2.98004	
-2.97852	
-2.98462	
-2.98615	
-2.98767	
-2.9892	
-2.98767	
-2.98615	
-2.98767	
-2.9892	
-2.98767	
-2.98615	
-2.98462	
-2.98615	
-2.98309	
-2.98309	
-2.98309	
-2.98309	
-2.98309	
-2.98004	
-2.98615	
-2.98462	
-2.98462	
-2.98462	
-2.98462	
-2.98462	
-2.98462	
-2.98462	
-2.98004	
-2.97852	
-2.97852	
-2.98309	
-2.97699	
-2.97852	
-2.97852	
-2.97852	
-2.98004	
-2.98462	
-2.98462	
-2.98309	
-2.98309	
-2.98462	
-2.98462	
-2.98462	
-2.98309	
-2.98309	
-2.97852	
-2.97852	
-2.97699	
-2.97852	
-2.98004	
-2.97699	
-2.98004	
-2.98309	
-2.98309	
-2.97699	
-2.97852	
-2.98004	
-2.97852	
-2.97699	
-2.98309	
-2.97852	
-2.97852	
-2.97546	
-2.97699	
-2.97546	
-2.97699	
-2.97852	
-2.98004	
-2.97852	
-2.97852	
-2.98309	
-2.98004	
-2.98004	
-2.98004	
-2.97852	
-2.98004	
-2.98309	
-2.97546	
-2.97699	
-2.97546	
-2.97546	
-2.97546	
-2.97699	
-2.97699	
-2.97394	
-2.97546	
-2.97394	
-2.97546	
-2.97394	
-2.97241	
-2.97394	
-2.97241	
-2.97546	
-2.97394	
-2.97394	
-2.96783	
-2.96936	
-2.96936	
-2.96936	
-2.97089	
-2.97394	
-2.96936	
-2.97241	
-2.97394	
-2.97394	
-2.97241	
-2.97852	
-2.97546	
-2.97699	
-2.97546	
-2.97546	
-2.97546	
-2.97394	
-2.97546	
-2.97852	
-2.97699	
-2.98004	
-2.97852	
-2.98309	
-2.98462	
-2.98615	
-2.98767	
-2.9892	
-2.99225	
-2.98767	
-2.98615	
-2.98615	
-2.98615	
-2.98462	
-2.98615	
-2.98462	
-2.98615	
-2.98309	
-2.98767	
-2.98309	
-2.98615	
-2.98615	
-2.98767	
-2.98462	
-2.98767	
-2.98462	
-2.98462	
-2.98462	
-2.98462	
-2.98004	
-2.97699	
-2.97699	
-2.97699	
-2.97699	
-2.97699	
-2.97394	
-2.97546	
-2.97699	
-2.97852	
-2.97852	
-2.97394	
-2.97699	
-2.98004	
-2.97546	
-2.97699	
-2.97546	
-2.97699	
-2.97394	
-2.97394	
-2.97241	
-2.97089	
-2.97394	
-2.97089	
-2.97241	
-2.97546	
-2.97394	
-2.97241	
-2.97546	
-2.97852	
-2.97241	
-2.97394	
-2.97394	
-2.97394	
-2.97089	
-2.97241	
-2.97241	
-2.96936	
-2.97089	
-2.97241	
-2.97089	
-2.97241	
-2.97546	
-2.97394	
-2.97241	
-2.97394	
-2.97241	
-2.97241	
-2.97089	
-2.97241	
-2.97241	
-2.97089	
-2.96936	
-2.96936	
-2.97241	
-2.97546	
-2.97241	
-2.97089	
-2.97241	
-2.97394	
-2.97394	
-2.97089	
-2.97394	
-2.97394	
-2.97241	
-2.97546	
-2.97241	
-2.96783	
-2.96936	
-2.96936	
-2.96936	
-2.96783	
-2.96783	
-2.96936	
-2.96936	
-2.97241	
-2.97394	
-2.96936	
-2.97546	
-2.97241	
-2.97241	
-2.97394	
-2.97546	
-2.97241	
-2.96936	
-2.97241	
-2.96936	
-2.97089	
-2.96936	
-2.97089	
-2.96936	
-2.97241	
-2.96936	
-2.97241	
-2.96936	
-2.97241	
-2.97241	
-2.97089	
-2.97546	
-2.97241	
-2.96936	
-2.96631	
-2.97089	
-2.96783	
-2.96783	
-2.96783	
-2.96783	
-2.96631	
-2.97089	
-2.96783	
-2.96783	
-2.96783	
-2.96783	
-2.96936	
-2.97089	
-2.97089	
-2.97089	
-2.97089	
-2.96783	
-2.96631	
-2.96326	
-2.96478	
-2.96478	
-2.96783	
-2.96478	
-2.96631	
-2.96783	
-2.96936	
-2.96631	
-2.96783	
-2.96478	
-2.96783	
-2.96631	
-2.96478	
-2.95715	
-2.96326	
-2.96173	
-2.96021	
-2.96173	
-2.96326	
-2.96173	
-2.96021	
-2.96326	
-2.96631	
-2.96021	
-2.96173	
-2.96021	
-2.96478	
-2.96783	
-2.97089	
-2.96631	
-2.96478	
-2.96478	
-2.96173	
-2.96478	
-2.96631	
-2.96631	
-2.96326	
-2.96478	
-2.96631	
-2.96478	
-2.96478	
-2.96326	
-2.96326	
-2.96021	
-2.96478	
-2.96478	
-2.96021	
-2.96021	
-2.96173	
-2.96021	
-2.96326	
-2.95868	
-2.96021	
-2.96173	
-2.96326	
-2.96478	
-2.96326	
-2.96478	
-2.96478	
-2.96173	
-2.96478	
-2.96326	
-2.96326	
-2.96021	
-2.96326	
-2.96173	
-2.96021	
-2.96021	
-2.95868	
-2.95715	
-2.95715	
-2.96021	
-2.96173	
-2.96173	
-2.96326	
-2.96326	
-2.96021	
-2.96021	
-2.96326	
-2.95868	
-2.95715	
-2.95868	
-2.95715	
-2.95868	
-2.95563	
-2.95715	
-2.95563	
-2.95563	
-2.95868	
-2.95868	
-2.95563	
-2.95868	
-2.96021	
-2.96021	
-2.96021	
-2.95715	
-2.95563	
-2.95258	
-2.95258	
-2.9541	
-2.95715	
-2.95715	
-2.95715	
-2.9541	
-2.9541	
-2.95563	
-2.95563	
-2.95868	
-2.95715	
-2.95715	
-2.95563	
-2.95563	
-2.95563	
-2.9541	
-2.95563	
-2.95258	
-2.95563	
-2.9541	
-2.9541	
-2.95715	
-2.95563	
-2.95563	
-2.95563	
-2.9541	
-2.95715	
-2.95563	
-2.95563	
-2.95715	
-2.9541	
-2.95258	
-2.94952	
-2.9541	
-2.94952	
-2.9541	
-2.94647	
-2.9541	
-2.9541	
-2.95563	
-2.9541	
-2.95563	
-2.95258	
-2.95258	
-2.95258	
-2.94952	
-2.95258	
-2.94952	
-2.95258	
-2.95258	
-2.9541	
-2.94952	
-2.94952	
-2.95258	
-2.94952	
-2.94647	
-2.9541	
-2.95563	
-2.9541	
-2.95715	
-2.95715	
-2.9541	
-2.95563	
-2.9541	
-2.95258	
-2.94647	
-2.95258	
-2.95258	
-2.94952	
-2.95258	
-2.9541	
-2.94952	
-2.948	
-2.9541	
-2.95563	
-2.9541	
-2.95258	
-2.9541	
-2.94342	
-2.948	
-2.948	
-2.948	
-2.94647	
-2.94952	
-2.94647	
-2.95258	
-2.94952	
-2.94647	
-2.94952	
-2.94952	
-2.94952	
-2.948	
-2.94495	
-2.948	
-2.94647	
-2.94495	
-2.94952	
-2.948	
-2.94647	
-2.94495	
-2.94495	
-2.94647	
-2.94342	
-2.948	
-2.94342	
-2.94342	
-2.94495	
-2.94952	
-2.94952	
-2.94952	
-2.948	
-2.948	
-2.948	
-2.94495	
-2.94495	
-2.94495	
-2.94495	
-2.94647	
-2.948	
-2.94189	
-2.948	
-2.94342	
-2.94647	
-2.94647	
-2.94647	
-2.94342	
-2.94647	
-2.948	
-2.94342	
-2.94495	
-2.94495	
-2.94495	
-2.94342	
-2.94189	
-2.94189	
-2.94189	
-2.94342	
-2.94342	
-2.94037	
-2.94342	
-2.94342	
-2.94342	
-2.94495	
-2.94342	
-2.94342	
-2.94647	
-2.94495	
-2.94647	
-2.94342	
-2.94037	
-2.94189	
-2.94037	
-2.93884	
-2.94037	
-2.93884	
-2.94342	
-2.93884	
-2.94342	
-2.94495	
-2.94342	
-2.94342	
-2.94647	
-2.94189	
-2.94189	
-2.94342	
-2.93884	
-2.93884	
-2.94189	
-2.93884	
-2.94037	
-2.94189	
-2.94189	
-2.94037	
-2.94037	
-2.94189	
-2.94495	
-2.94189	
-2.94495	
-2.94647	
-2.94189	
-2.94189	
-2.94189	
-2.94342	
-2.94037	
-2.93732	
-2.94189	
-2.93884	
-2.94189	
-2.94037	
-2.94189	
-2.94037	
-2.94037	
-2.94037	
-2.93884	
-2.94189	
-2.94342	
-2.94342	
-2.94342	
-2.94495	
-2.93884	
-2.94189	
-2.94189	
-2.93884	
-2.93884	
-2.93579	
-2.93732	
-2.93732	
-2.94189	
-2.93884	
-2.94037	
-2.93884	
-2.93732	
-2.94037	
-2.93732	
-2.93732	
-2.93579	
-2.93732	
-2.93732	
-2.93732	
-2.93732	
-2.93884	
-2.93427	
-2.93427	
-2.93884	
-2.93732	
-2.93732	
-2.93884	
-2.93732	
-2.93579	
-2.93579	
-2.93579	
-2.93274	
-2.93121	
-2.93274	
-2.93427	
-2.93427	
-2.93274	
-2.93427	
-2.92969	
-2.93427	
-2.93427	
-2.93427	
-2.93579	
-2.93579	
-2.93884	
-2.93732	
-2.93884	
-2.93427	
-2.93732	
-2.93274	
-2.93274	
-2.93274	
-2.92969	
-2.93274	
-2.93427	
-2.93579	
-2.93579	
-2.93579	
-2.93427	
-2.93579	
-2.93732	
-2.93427	
-2.93579	
-2.93427	
-2.93274	
-2.93121	
-2.93121	
-2.93427	
-2.93274	
-2.92969	
-2.93121	
-2.92969	
-2.93274	
-2.93121	
-2.93274	
-2.93427	
-2.93427	
-2.93427	
-2.93427	
-2.93579	
-2.93427	
-2.93274	
-2.92969	
-2.93274	
-2.93274	
-2.93121	
-2.93121	
-2.92969	
-2.93121	
-2.93274	
-2.93274	
-2.93274	
-2.92969	
-2.93121	
-2.93274	
-2.93274	
-2.93274	
-2.93121	
-2.92816	
-2.92969	
-2.92816	
-2.92816	
-2.92664	
-2.92816	
-2.92969	
-2.92664	
-2.93121	
-2.92969	
-2.93121	
-2.93274	
-2.93274	
-2.93121	
-2.92969	
-2.92969	
-2.92816	
-2.92969	
-2.92664	
-2.92816	
-2.92358	
-2.92511	
-2.92816	
-2.92816	
-2.92358	
-2.92969	
-2.93121	
-2.92969	
-2.92969	
-2.93121	
-2.92969	
-2.92816	
-2.92969	
-2.92358	
-2.92664	
-2.92511	
-2.92511	
-2.92664	
-2.92969	
-2.92816	
-2.92969	
-2.92816	
-2.93121	
-2.92816	
-2.92664	
-2.92816	
-2.93121	
-2.92664	
-2.92816	
-2.92664	
-2.92511	
-2.92206	
-2.92358	
-2.92358	
-2.92358	
-2.92358	
-2.92358	
-2.92206	
-2.92358	
-2.92511	
-2.92816	
-2.92816	
-2.92664	
-2.92511	
-2.92511	
-2.92511	
-2.92206	
-2.92206	
-2.91748	
-2.92206	
-2.92358	
-2.92053	
-2.91748	
-2.91748	
-2.91595	
-2.91595	
-2.92053	
-2.92206	
-2.92206	
-2.92206	
-2.92358	
-2.92358	
-2.92358	
-2.92206	
-2.92206	
-2.91748	
-2.91748	
-2.91748	
-2.92358	
-2.92053	
-2.91748	
-2.92358	
-2.91748	
-2.92053	
-2.92358	
-2.91748	
-2.92053	
-2.91748	
-2.92511	
-2.92053	
-2.91595	
-2.91443	
-2.91748	
-2.91443	
-2.91595	
-2.91595	
-2.91443	
-2.91595	
-2.91748	
-2.92053	
-2.91748	
-2.92206	
-2.91748	
-2.91138	
-2.91443	
-2.9129	
-2.91443	
-2.9129	
-2.91443	
-2.9129	
-2.91443	
-2.91443	
-2.91443	
-2.91443	
-2.9129	
-2.91443	
-2.91595	
-2.91138	
-2.91443	
-2.91138	
-2.9129	
-2.91443	
-2.91443	
-2.91138	
-2.9129	
-2.90985	
-2.91138	
-2.91138	
-2.91138	
-2.90985	
-2.91138	
-2.9129	
-2.9129	
-2.91595	
-2.91443	
-2.90985	
-2.9129	
-2.9129	
-2.91595	
-2.91748	
-2.91138	
-2.90833	
-2.91443	
-2.90985	
-2.90985	
-2.90985	
-2.91138	
-2.91138	
-2.91138	
-2.91595	
-2.9129	
-2.9129	
-2.91138	
-2.91138	
-2.90985	
-2.9129	
-2.90833	
-2.90985	
-2.91138	
-2.91138	
-2.91138	
-2.90833	
-2.91138	
-2.9129	
-2.91138	
-2.91138	
-2.91443	
-2.91595	
-2.9129	
-2.91443	
-2.91443	
-2.90985	
-2.91443	
-2.90985	
-2.90985	
-2.90833	
-2.90985	
-2.90833	
-2.90833	
-2.9068	
-2.9129	
-2.9129	
-2.9129	
-2.90985	
-2.90985	
-2.91138	
-2.91138	
-2.9129	
-2.9129	
-2.9129	
-2.9129	
-2.90985	
-2.90833	
-2.90985	
-2.91138	
-2.9068	
-2.91443	
-2.90833	
-2.90985	
-2.91138	
-2.91138	
-2.9129	
-2.9129	
-2.90985	
-2.91138	
-2.90985	
-2.90833	
-2.9068	
-2.90527	
-2.90985	
-2.9068	
-2.90833	
-2.90833	
-2.90985	
-2.90985	
-2.90833	
-2.90833	
-2.91138	
-2.90833	
-2.90833	
-2.90985	
-2.90527	
-2.90527	
-2.90222	
-2.90375	
-2.90375	
-2.9068	
-2.90527	
-2.90833	
-2.9068	
-2.90527	
-2.90985	
-2.91138	
-2.91138	
-2.91138	
-2.9129	
-2.91595	
-2.92053	
-2.92053	
-2.91748	
-2.91748	
-2.91748	
-2.92206	
-2.91595	
-2.91748	
-2.91748	
-2.92053	
-2.92053	
-2.92206	
-2.91748	
-2.92206	
-2.92206	
-2.92053	
-2.91748	
-2.92053	
-2.91748	
-2.91443	
-2.91443	
-2.91443	
-2.9129	
-2.9129	
-2.9129	
-2.91443	
-2.90985	
-2.9129	
-2.9129	
-2.9129	
-2.9129	
-2.9129	
-2.9129	
-2.9129	
-2.91138	
-2.91138	
-2.90985	
-2.90833	
-2.90527	
-2.90985	
-2.90985	
-2.90833	
-2.91138	
-2.9068	
-2.9129	
-2.9068	
-2.90985	
-2.9068	
-2.90985	
-2.90833	
-2.90833	
-2.90833	
-2.9068	
-2.90527	
-2.90222	
-2.9068	
-2.9068	
-2.90375	
-2.90375	
-2.90527	
-2.90527	
-2.90527	
-2.9068	
-2.90833	
-2.9068	
-2.90833	
-2.90527	
-2.90375	
-2.90375	
-2.90527	
-2.90375	
-2.90527	
-2.90375	
-2.90375	
-2.90375	
-2.90375	
-2.90375	
-2.90527	
-2.9068	
-2.9068	
-2.90222	
-2.9068	
-2.90527	
-2.90833	
-2.9068	
-2.90375	
-2.90222	
-2.90375	
-2.90222	
-2.90222	
-2.9007	
-2.89764	
-2.9007	
-2.9007	
-2.90375	
-2.90222	
-2.90222	
-2.89917	
-2.90222	
-2.90375	
-2.90222	
-2.90375	
-2.89917	
-2.90375	
-2.9007	
-2.9007	
-2.9007	
-2.89764	
-2.89307	
-2.89764	
-2.89764	
-2.90375	
-2.90375	
-2.9007	
-2.9007	
-2.90375	
-2.9007	
-2.90222	
-2.90222	
-2.90222	
-2.89917	
-2.9007	
-2.90222	
-2.90222	
-2.89917	
-2.89764	
-2.89917	
-2.90222	
-2.89917	
-2.90222	
-2.90375	
-2.90222	
-2.90375	
-2.90375	
-2.90222	
-2.9007	
-2.9007	
-2.9007	
-2.9007	
-2.9007	
-2.89917	
-2.89917	
-2.90222	
-2.89917	
-2.90222	
-2.90375	
-2.90222	
-2.9007	
-2.90222	
-2.90222	
-2.9007	
-2.9007	
-2.90222	
-2.89917	
-2.89764	
-2.89764	
-2.89612	
-2.89307	
-2.89612	
-2.89612	
-2.89764	
-2.89917	
-2.89917	
-2.9007	
-2.9007	
-2.89917	
-2.89917	
-2.89917	
-2.89917	
-2.89764	
-2.89764	
-2.89917	
-2.89764	
-2.89917	
-2.89612	
-2.89917	
-2.89764	
-2.89612	
-2.89612	
-2.89917	
-2.89917	
-2.89917	
-2.89764	
-2.89764	
-2.89764	
-2.89459	
-2.89459	
-2.89307	
-2.89307	
-2.89459	
-2.89459	
-2.89307	
-2.89612	
-2.89154	
-2.89459	
-2.89612	
-2.89612	
-2.89459	
-2.89307	
-2.89612	
-2.89307	
-2.89154	
-2.89307	
-2.89154	
-2.89307	
-2.89001	
-2.88849	
-2.88849	
-2.88391	
-2.89001	
-2.89154	
-2.89001	
-2.89307	
-2.89459	
-2.89307	
-2.89459	
-2.89307	
-2.89001	
-2.89307	
-2.89154	
-2.89154	
-2.88544	
-2.88849	
-2.88849	
-2.89001	
-2.89154	
-2.89001	
-2.89001	
-2.89001	
-2.89307	
-2.89001	
-2.89001	
-2.89154	
-2.89307	
-2.89154	
-2.89307	
-2.88849	
-2.88544	
-2.88849	
-2.88849	
-2.88544	
-2.88849	
-2.89307	
-2.89001	
-2.89001	
-2.89001	
-2.89001	
-2.89001	
-2.88849	
-2.89001	
-2.89001	
-2.88849	
-2.89154	
-2.88544	
-2.88391	
-2.89154	
-2.88849	
-2.88849	
-2.88391	
-2.88544	
-2.88544	
-2.88544	
-2.89001	
-2.88544	
-2.88544	
-2.88849	
-2.88391	
-2.88391	
-2.88544	
-2.88391	
-2.88391	
-2.88391	
-2.88544	
-2.88239	
-2.88391	
-2.88391	
-2.88544	
-2.88086	
-2.88544	
-2.88849	
-2.88849	
-2.89001	
-2.88544	
-2.88849	
-2.88544	
-2.88391	
-2.88391	
-2.88239	
-2.88544	
-2.88391	
-2.88086	
-2.88239	
-2.88239	
-2.88239	
-2.88391	
-2.88544	
-2.88849	
-2.88391	
-2.88544	
-2.89001	
-2.88391	
-2.88544	
-2.88391	
-2.88391	
-2.88391	
-2.88544	
-2.88391	
-2.88544	
-2.88239	
-2.88391	
-2.88391	
-2.88544	
-2.88544	
-2.88391	
-2.88391	
-2.88391	
-2.88544	
-2.88544	
-2.88544	
-2.88544	
-2.88391	
-2.88849	
-2.88849	
-2.88544	
-2.88391	
-2.88544	
-2.88239	
-2.88391	
-2.88544	
-2.88849	
-2.88849	
-2.88391	
-2.88544	
-2.88849	
-2.88544	
-2.88544	
-2.88544	
-2.88086	
-2.87933	
-2.88391	
-2.88239	
-2.88239	
-2.88391	
-2.88086	
-2.88391	
-2.88544	
-2.88544	
-2.88239	
-2.88391	
-2.88239	
-2.88391	
-2.88849	
-2.88391	
-2.88086	
-2.87933	
-2.88239	
-2.87933	
-2.88086	
-2.87781	
-2.87933	
-2.88086	
-2.87933	
-2.88849	
-2.88239	
-2.88391	
-2.88239	
-2.88239	
-2.88239	
-2.88239	
-2.88086	
-2.87933	
-2.87933	
-2.88086	
-2.88391	
-2.88086	
-2.88239	
-2.88086	
-2.88086	
-2.87933	
-2.88391	
-2.88086	
-2.88086	
-2.87933	
-2.88086	
-2.87933	
-2.88086	
-2.87781	
-2.8717	
-2.87476	
-2.87628	
-2.87628	
-2.88086	
-2.87933	
-2.88086	
-2.88086	
-2.87781	
-2.88086	
-2.87933	
-2.88086	
-2.87933	
-2.88239	
-2.87933	
-2.87781	
-2.87781	
-2.87628	
-2.87781	
-2.87933	
-2.88086	
-2.87933	
-2.87781	
-2.87933	
-2.87933	
-2.88239	
-2.88086	
-2.87933	
-2.88239	
-2.87781	
-2.87781	
-2.87933	
-2.87933	
-2.87933	
-2.87781	
-2.87781	
-2.88239	
-2.87933	
-2.88086	
-2.87628	
-2.87781	
-2.88086	
-2.87933	
-2.87781	
-2.87933	
-2.88239	
-2.88086	
-2.87933	
-2.88086	
-2.87628	
-2.87628	
-2.87933	
-2.87781	
-2.87628	
-2.87781	
-2.87628	
-2.87628	
-2.88086	
-2.87933	
-2.88086	
-2.87933	
-2.88086	
-2.87781	
-2.87933	
-2.88239	
-2.88239	
-2.87628	
-2.87476	
-2.87628	
-2.87628	
-2.87476	
-2.87476	
-2.87476	
-2.87628	
-2.87781	
-2.87933	
-2.87781	
-2.88086	
-2.87628	
-2.88086	
-2.87781	
-2.87933	
-2.87781	
-2.87476	
-2.87476	
-2.87628	
-2.87628	
-2.87628	
-2.87476	
-2.87323	
-2.87628	
-2.87323	
-2.87781	
-2.87628	
-2.87933	
-2.87628	
-2.87781	
-2.88086	
-2.87933	
-2.87476	
-2.87628	
-2.87476	
-2.87476	
-2.87323	
-2.87323	
-2.87323	
-2.87476	
-2.87323	
-2.87476	
-2.87628	
-2.87628	
-2.87628	
-2.87781	
-2.88086	
-2.88086	
-2.87628	
-2.87781	
-2.87323	
-2.87476	
-2.87323	
-2.8717	
-2.8717	
-2.8717	
-2.8717	
-2.87628	
-2.87781	
-2.87628	
-2.87628	
-2.8717	
-2.87476	
-2.87628	
-2.87628	
-2.87476	
-2.8717	
-2.87476	
-2.87323	
-2.87323	
-2.87018	
-2.87476	
-2.86865	
-2.8717	
-2.87018	
-2.87476	
-2.87476	
-2.87476	
-2.87323	
-2.87628	
-2.87323	
-2.87323	
-2.87018	
-2.87018	
-2.86865	
-2.87018	
-2.87018	
-2.87323	
-2.86865	
-2.8717	
-2.8717	
-2.87476	
-2.87018	
-2.8717	
-2.8717	
-2.8717	
-2.87018	
-2.87018	
-2.86865	
-2.86713	
-2.87018	
-2.86713	
-2.87018	
-2.86865	
-2.86865	
-2.87018	
-2.86865	
-2.87018	
-2.8717	
-2.87018	
-2.87018	
-2.87323	
-2.87018	
-2.87018	
-2.87018	
-2.87018	
-2.87018	
-2.86865	
-2.87018	
-2.86713	
-2.8656	
-2.87323	
-2.87018	
-2.86865	
-2.87323	
-2.87628	
-2.87323	
-2.87476	
-2.8717	
-2.8717	
-2.87018	
-2.8717	
-2.86865	
-2.86713	
-2.8656	
-2.86865	
-2.87018	
-2.86865	
-2.8717	
-2.86713	
-2.86865	
-2.8717	
-2.87323	
-2.87018	
-2.87323	
-2.87323	
-2.87323	
-2.8717	
-2.87018	
-2.86713	
-2.86865	
-2.87018	
-2.86865	
-2.86713	
-2.8656	
-2.8656	
-2.86865	
-2.86865	
-2.87018	
-2.86865	
-2.87018	
-2.87018	
-2.8717	
-2.87018	
-2.8717	
-2.8717	
-2.8656	
-2.86713	
-2.86713	
-2.86713	
-2.86407	
-2.86713	
-2.8656	
-2.8656	
-2.86865	
-2.87018	
-2.86865	
-2.86865	
-2.87018	
-2.87018	
-2.86713	
-2.86865	
-2.8656	
-2.8656	
-2.86407	
-2.86713	
-2.86407	
-2.86713	
-2.87018	
-2.86713	
-2.86407	
-2.86865	
-2.8656	
-2.86713	
-2.86865	
-2.8656	
-2.86713	
-2.8656	
-2.86865	
-2.86102	
-2.86407	
-2.8656	
-2.8656	
-2.86407	
-2.86713	
-2.86407	
-2.86407	
-2.8656	
-2.8656	
-2.86865	
-2.86713	
-2.86865	
-2.8656	
-2.86865	
-2.86713	
-2.86865	
-2.86407	
-2.8656	
-2.8656	
-2.8656	
-2.86713	
-2.86713	
-2.86102	
-2.86407	
-2.86713	
-2.86713	
-2.86713	
-2.86865	
-2.86713	
-2.86407	
-2.86407	
-2.86713	
-2.86255	
-2.8595	
-2.86102	
-2.85797	
-2.86102	
-2.8595	
-2.86255	
-2.8595	
-2.86102	
-2.86255	
-2.86407	
-2.86407	
-2.86102	
-2.86255	
-2.86102	
-2.8595	
-2.86102	
-2.85797	
-2.85797	
-2.85797	
-2.85645	
-2.85187	
-2.85187	
-2.85187	
-2.85187	
-2.85645	
-2.85645	
-2.8595	
-2.86102	
-2.8595	
-2.85797	
-2.85797	
-2.8595	
-2.86255	
-2.85645	
-2.85797	
-2.86255	
-2.8595	
-2.86102	
-2.85797	
-2.8595	
-2.86255	
-2.86407	
-2.86407	
-2.8656	
-2.86713	
-2.87018	
-2.87018	
-2.87018	
-2.87018	
-2.87018	
-2.86865	
-2.86865	
-2.86865	
-2.87018	
-2.86713	
-2.87018	
-2.86713	
-2.87018	
-2.86865	
-2.86865	
-2.86865	
-2.87323	
-2.87018	
-2.8717	
-2.86713	
-2.8717	
-2.86865	
-2.8656	
-2.86713	
-2.86407	
-2.8656	
-2.86255	
-2.86407	
-2.86407	
-2.86407	
-2.86407	
-2.86102	
-2.86255	
-2.86407	
-2.86255	
-2.86102	
-2.8656	
-2.86102	
-2.86102	
-2.85645	
-2.85797	
-2.85645	
-2.85645	
-2.86102	
-2.85797	
-2.85645	
-2.85797	
-2.85797	
-2.8595	
-2.85797	
-2.86255	
-2.86255	
-2.86102	
-2.86102	
-2.85645	
-2.85339	
-2.85187	
-2.85187	
-2.85339	
-2.85645	
-2.85645	
-2.85645	
-2.85645	
-2.85645	
-2.8595	
-2.85797	
-2.85645	
-2.8595	
-2.85797	
-2.85645	
-2.8595	
-2.85797	
-2.85339	
-2.85187	
-2.85187	
-2.85187	
-2.85645	
-2.85645	
-2.85339	
-2.85187	
-2.85339	
-2.85339	
-2.85034	
-2.85187	
-2.85645	
-2.85187	
-2.85339	
-2.85034	
-2.84576	
-2.84882	
-2.85187	
-2.85187	
-2.85645	
-2.85187	
-2.85187	
-2.85187	
-2.85339	
-2.85339	
-2.85339	
-2.85797	
-2.85645	
-2.85645	
-2.85339	
-2.85339	
-2.85187	
-2.85339	
-2.85034	
-2.85034	
-2.84882	
-2.85034	
-2.85034	
-2.85187	
-2.84882	
-2.85339	
-2.85187	
-2.85187	
-2.85034	
-2.85034	
-2.84882	
-2.84882	
-2.85187	
-2.84882	
-2.84729	
-2.84882	
-2.84729	
-2.85034	
-2.84882	
-2.85034	
-2.84882	
-2.84882	
-2.85034	
-2.85034	
-2.85034	
-2.84882	
-2.85034	
-2.85187	
-2.85187	
-2.85034	
-2.85034	
-2.84882	
-2.84882	
-2.84882	
-2.84882	
-2.85034	
-2.85034	
-2.84882	
-2.85034	
-2.85187	
-2.85187	
-2.84882	
-2.85187	
-2.85034	
-2.85645	
-2.85339	
-2.85339	
-2.84882	
-2.84729	
-2.85034	
-2.85187	
-2.84882	
-2.85187	
-2.84729	
-2.85034	
-2.85187	
-2.85645	
-2.85034	
-2.85187	
-2.85339	
-2.85187	
-2.85187	
-2.85645	
-2.85187	
-2.84882	
-2.85187	
-2.85187	
-2.85034	
-2.84882	
-2.84882	
-2.84882	
-2.85034	
-2.85034	
-2.84882	
-2.85034	
-2.85034	
-2.85034	
-2.84882	
-2.85034	
-2.85034	
-2.84729	
-2.84729	
-2.85187	
-2.84729	
-2.84729	
-2.84729	
-2.84882	
-2.84882	
-2.84729	
-2.85034	
-2.85034	
-2.85187	
-2.84882	
-2.85187	
-2.85034	
-2.85187	
-2.85034	
-2.84882	
-2.84882	
-2.84729	
-2.84729	
-2.84576	
-2.84729	
-2.84729	
-2.85034	
-2.85034	
-2.84576	
-2.84882	
-2.84882	
-2.85187	
-2.84729	
-2.85034	
-2.84882	
-2.84729	
-2.84729	
-2.84882	
-2.84882	
-2.84729	
-2.84576	
-2.84729	
-2.84424	
-2.84729	
-2.84729	
-2.84729	
-2.84729	
-2.84729	
-2.84729	
-2.84729	
-2.85187	
-2.84729	
-2.84576	
-2.84576	
-2.84424	
-2.84424	
-2.84576	
-2.84882	
-2.84882	
-2.84271	
-2.84882	
-2.84729	
-2.84271	
-2.84882	
-2.84424	
-2.84576	
-2.84576	
-2.84576	
-2.83813	
-2.84119	
-2.84424	
-2.84424	
-2.83966	
-2.84119	
-2.84119	
-2.83966	
-2.84424	
-2.84424	
-2.84271	
-2.84271	
-2.84271	
-2.84576	
-2.84119	
-2.84576	
-2.84271	
-2.83966	
-2.83966	
-2.83966	
-2.83966	
-2.83966	
-2.83813	
-2.83966	
-2.83813	
-2.84119	
-2.84424	
-2.84119	
-2.84119	
-2.83966	
-2.84119	
-2.84119	
-2.83966	
-2.83966	
-2.83813	
-2.83661	
-2.83813	
-2.83813	
-2.83508	
-2.83661	
-2.83661	
-2.83661	
-2.83966	
-2.83966	
-2.83508	
-2.84119	
-2.83966	
-2.83966	
-2.84119	
-2.83966	
-2.83966	
-2.83508	
-2.83508	
-2.83813	
-2.83813	
-2.83813	
-2.83661	
-2.83356	
-2.83356	
-2.83661	
-2.83661	
-2.83813	
-2.83966	
-2.83508	
-2.84119	
-2.83966	
-2.83813	
-2.83661	
-2.83661	
-2.83813	
-2.83813	
-2.83356	
-2.83203	
-2.83661	
-2.83508	
-2.83661	
-2.83661	
-2.83661	
-2.83661	
-2.84119	
-2.83661	
-2.83508	
-2.83966	
-2.83661	
-2.83508	
-2.83661	
-2.83356	
-2.83508	
-2.83356	
-2.83356	
-2.83203	
-2.83051	
-2.83508	
-2.83661	
-2.83508	
-2.83356	
-2.83356	
-2.83356	
-2.83508	
-2.83508	
-2.83356	
-2.83203	
-2.83356	
-2.83356	
-2.83051	
-2.83051	
-2.82898	
-2.83203	
-2.83051	
-2.83356	
-2.83508	
-2.83508	
-2.83356	
-2.83356	
-2.83203	
-2.83203	
-2.83203	
-2.83051	
-2.83356	
-2.83203	
-2.83051	
-2.83051	
-2.82898	
-2.83051	
-2.82898	
-2.83203	
-2.83203	
-2.83051	
-2.83051	
-2.83203	
-2.83051	
-2.83051	
-2.83203	
-2.83356	
-2.83051	
-2.82745	
-2.82745	
-2.82745	
-2.82898	
-2.83051	
-2.83203	
-2.83051	
-2.83051	
-2.83203	
-2.83203	
-2.83051	
-2.83051	
-2.83356	
-2.83051	
-2.83203	
-2.83203	
-2.83051	
-2.82898	
-2.83203	
-2.82898	
-2.82745	
-2.82593	
-2.82898	
-2.82593	
-2.83051	
-2.82898	
-2.83051	
-2.83051	
-2.82898	
-2.82745	
-2.83051	
-2.83051	
-2.82593	
-2.82745	
-2.82288	
-2.82593	
-2.82745	
-2.82593	
-2.82745	
-2.82745	
-2.82898	
-2.82898	
-2.83051	
-2.83051	
-2.83051	
-2.83203	
-2.83203	
-2.83051	
-2.82898	
-2.82898	
-2.82745	
-2.82745	
-2.82745	
-2.82745	
-2.82745	
-2.82593	
-2.83051	
-2.82593	
-2.83203	
-2.82898	
-2.83051	
-2.83203	
-2.82745	
-2.83203	
-2.83051	
-2.82593	
-2.82745	
-2.82593	
-2.82745	
-2.82135	
-2.82898	
-2.82898	
-2.82745	
-2.82898	
-2.82745	
-2.83051	
-2.83051	
-2.83051	
-2.82898	
-2.82593	
-2.82898	
-2.82898	
-2.82745	
-2.81982	
-2.83051	
-2.82745	
-2.82593	
-2.82745	
-2.82745	
-2.82593	
-2.83051	
-2.82745	
-2.82745	
-2.82745	
-2.82898	
-2.82745	
-2.82898	
-2.83051	
-2.83051	
-2.82593	
-2.82593	
-2.82288	
-2.83051	
-2.82745	
-2.82745	
-2.82745	
-2.82745	
-2.82288	
-2.82593	
-2.82593	
-2.82593	
-2.82745	
-2.82745	
-2.82898	
-2.82745	
-2.82593	
-2.82593	
-2.82593	
-2.82745	
-2.82745	
-2.82593	
-2.82593	
-2.82745	
-2.82745	
-2.82898	
-2.82745	
-2.83051	
-2.82898	
-2.83051	
-2.82745	
-2.83051	
-2.82745	
-2.82288	
-2.82288	
-2.82898	
-2.82745	
-2.82288	
-2.82745	
-2.82898	
-2.82288	
-2.82593	
-2.82898	
-2.82898	
-2.83051	
-2.83051	
-2.82898	
-2.82593	
-2.82745	
-2.82288	
-2.82593	
-2.82593	
-2.82288	
-2.82745	
-2.82288	
-2.82898	
-2.82745	
-2.82898	
-2.82593	
-2.83051	
-2.82593	
-2.82898	
-2.82898	
-2.83051	
-2.82898	
-2.82745	
-2.82593	
-2.82593	
-2.82593	
-2.82593	
-2.82593	
-2.82288	
-2.82593	
-2.82593	
-2.82288	
-2.82593	
-2.82898	
-2.82898	
-2.82745	
-2.83203	
-2.82898	
-2.82745	
-2.82745	
-2.82745	
-2.82135	
-2.82593	
-2.82288	
-2.82135	
-2.82288	
-2.82288	
-2.82135	
-2.82593	
-2.82593	
-2.82593	
-2.82288	
-2.82288	
-2.82745	
-2.82898	
-2.82593	
-2.82288	
-2.81982	
-2.82135	
-2.82135	
-2.82288	
-2.82135	
-2.82288	
-2.82288	
-2.82135	
-2.82288	
-2.82288	
-2.82745	
-2.82745	
-2.82593	
-2.82745	
-2.82288	
-2.81982	
-2.82135	
-2.82135	
-2.82288	
-2.81982	
-2.81982	
-2.81982	
-2.81982	
-2.81982	
-2.81982	
-2.82288	
-2.82135	
-2.82135	
-2.82593	
-2.82135	
-2.82135	
-2.82135	
-2.82288	
-2.82593	
-2.82135	
-2.82135	
-2.82135	
-2.82288	
-2.8183	
-2.82135	
-2.82135	
-2.82135	
-2.82288	
-2.82135	
-2.82288	
-2.82135	
-2.82288	
-2.82288	
-2.82135	
-2.82135	
-2.8183	
-2.81677	
-2.81677	
-2.8183	
-2.81982	
-2.81982	
-2.81982	
-2.81982	
-2.82135	
-2.82135	
-2.81982	
-2.82288	
-2.81982	
-2.8183	
-2.81982	
-2.81982	
-2.81372	
-2.81677	
-2.81372	
-2.81219	
-2.81525	
-2.81525	
-2.81372	
-2.81677	
-2.8183	
-2.8183	
-2.8183	
-2.81372	
-2.81525	
-2.81677	
-2.81677	
-2.8183	
-2.81677	
-2.81525	
-2.81372	
-2.81525	
-2.81677	
-2.81525	
-2.81525	
-2.8183	
-2.81525	
-2.81525	
-2.8183	
-2.81982	
-2.8183	
-2.8183	
-2.81525	
-2.8183	
-2.81525	
-2.81372	
-2.81219	
-2.81372	
-2.80914	
-2.81067	
-2.81067	
-2.81067	
-2.80762	
-2.81067	
-2.81372	
-2.81219	
-2.81219	
-2.81219	
-2.81067	
-2.81219	
-2.81067	
-2.81372	
-2.81067	
-2.81219	
-2.81219	
-2.81067	
-2.81372	
-2.81372	
-2.81219	
-2.81372	
-2.81677	
-2.8183	
-2.8183	
-2.82135	
-2.82135	
-2.82288	
-2.82135	
-2.82898	
-2.82288	
-2.82745	
-2.82288	
-2.82288	
-2.82593	
-2.8183	
-2.82135	
-2.82288	
-2.82135	
-2.82593	
-2.82745	
-2.82593	
-2.82135	
-2.82593	
-2.81982	
-2.82288	
-2.82135	
-2.8183	
-2.8183	
-2.81525	
-2.81372	
-2.81067	
-2.81219	
-2.80762	
-2.80914	
-2.81067	
-2.81067	
-2.81067	
-2.80914	
-2.81067	
-2.81372	
-2.80762	
-2.80762	
-2.80762	
-2.80762	
-2.80762	
-2.80914	
-2.81067	
-2.81219	
-2.81372	
-2.81372	
-2.81677	
-2.8183	
-2.81677	
-2.81525	
-2.81219	
-2.81525	
-2.81219	
-2.81372	
-2.81372	
-2.81372	
-2.81067	
-2.80914	
-2.80914	
-2.80914	
-2.80762	
-2.80762	
-2.80914	
-2.80609	
-2.81067	
-2.81219	
-2.81067	
-2.80914	
-2.81067	
-2.81372	
-2.81067	
-2.80914	
-2.80609	
-2.80914	
-2.80457	
-2.80762	
-2.80457	
-2.80457	
-2.80304	
-2.80762	
-2.80609	
-2.80762	
-2.80762	
-2.81067	
-2.80762	
-2.81067	
-2.80762	
-2.80762	
-2.80914	
-2.80457	
-2.80914	
-2.80609	
-2.80609	
-2.80609	
-2.80609	
-2.80609	
-2.80762	
-2.80457	
-2.80609	
-2.80609	
-2.80609	
-2.80914	
-2.80762	
-2.80304	
-2.80762	
-2.80609	
-2.80609	
-2.80304	
-2.80304	
-2.80457	
-2.80304	
-2.80304	
-2.80457	
-2.80151	
-2.80304	
-2.80304	
-2.80457	
-2.80457	
-2.80457	
-2.80304	
-2.80304	
-2.80304	
-2.80304	
-2.80457	
-2.80304	
-2.80151	
-2.80151	
-2.80151	
-2.80151	
-2.79999	
-2.80151	
-2.80151	
-2.80609	
-2.80457	
-2.79999	
-2.80151	
-2.80151	
-2.80457	
-2.80609	
-2.79999	
-2.79846	
-2.79694	
-2.79999	
-2.79999	
-2.79999	
-2.79999	
-2.80151	
-2.80151	
-2.79999	
-2.80151	
-2.79999	
-2.80151	
-2.80304	
-2.80304	
-2.80304	
-2.79999	
-2.80304	
-2.79846	
-2.79999	
-2.80151	
-2.79999	
-2.80151	
-2.79846	
-2.80151	
-2.80457	
-2.80304	
-2.80151	
-2.80457	
-2.80151	
-2.80151	
-2.80304	
-2.79999	
-2.80151	
-2.79846	
-2.79694	
-2.79541	
-2.79846	
-2.79846	
-2.79694	
-2.79388	
-2.79541	
-2.79999	
-2.79846	
-2.79694	
-2.79846	
-2.79999	
-2.79846	
-2.79999	
-2.79999	
-2.79541	
-2.79846	
-2.79846	
-2.79694	
-2.79846	
-2.79388	
-2.79388	
-2.79388	
-2.79541	
-2.79541	
-2.79846	
-2.79694	
-2.79846	
-2.79846	
-2.79846	
-2.79846	
-2.79694	
-2.79541	
-2.79694	
-2.79541	
-2.79541	
-2.79541	
-2.79541	
-2.79541	
-2.79541	
-2.80151	
-2.79541	
-2.79999	
-2.79694	
-2.79694	
-2.79846	
-2.79846	
-2.79846	
-2.79999	
-2.79694	
-2.79694	
-2.79541	
-2.79846	
-2.79541	
-2.79541	
-2.80151	
-2.79846	
-2.79999	
-2.79999	
-2.79846	
-2.79999	
-2.79694	
-2.79999	
-2.79694	
-2.80151	
-2.79694	
-2.79541	
-2.79388	
-2.79541	
-2.79694	
-2.79388	
-2.79541	
-2.79694	
-2.79541	
-2.79694	
-2.79694	
-2.80151	
-2.79846	
-2.79541	
-2.79999	
-2.80151	
-2.79694	
-2.79541	
-2.79083	
-2.79694	
-2.79388	
-2.79846	
-2.79083	
-2.79541	
-2.78931	
-2.79694	
-2.79846	
-2.79541	
-2.79694	
-2.79388	
-2.79388	
-2.79541	
-2.79388	
-2.79388	
-2.79083	
-2.78473	
-2.79083	
-2.78931	
-2.78778	
-2.78931	
-2.79388	
-2.79388	
-2.79083	
-2.79541	
-2.79388	
-2.79541	
-2.79541	
-2.79388	
-2.79541	
-2.79388	
-2.79388	
-2.78931	
-2.79083	
-2.79083	
-2.79083	
-2.78931	
-2.79388	
-2.79083	
-2.79388	
-2.79388	
-2.79694	
-2.79388	
-2.79083	
-2.79083	
-2.79388	
-2.79541	
-2.79083	
-2.79083	
-2.78778	
-2.79083	
-2.78931	
-2.79083	
-2.78778	
-2.78931	
-2.79083	
-2.79388	
-2.79083	
-2.79388	
-2.79083	
-2.78931	
-2.79083	
-2.79388	
-2.79388	
-2.79388	
-2.78778	
-2.78931	
-2.78778	
-2.78931	
-2.78625	
-2.78931	
-2.78778	
-2.78778	
-2.79083	
-2.79083	
-2.78778	
-2.78778	
-2.78778	
-2.78931	
-2.79083	
-2.78931	
-2.78625	
-2.78625	
-2.78625	
-2.78625	
-2.78778	
-2.78931	
-2.78931	
-2.79083	
-2.78778	
-2.79083	
-2.78931	
-2.79083	
-2.78931	
-2.79388	
-2.79388	
-2.79083	
-2.78931	
-2.78778	
-2.78625	
-2.7832	
-2.78625	
-2.78625	
-2.78625	
-2.78625	
-2.78625	
-2.78625	
-2.78931	
-2.78931	
-2.78625	
-2.78625	
-2.78778	
-2.78473	
-2.78625	
-2.78778	
-2.78473	
-2.7832	
-2.78168	
-2.78168	
-2.78473	
-2.7832	
-2.78473	
-2.78625	
-2.7832	
-2.78625	
-2.78931	
-2.78931	
-2.78931	
-2.78625	
-2.78473	
-2.78625	
-2.78625	
-2.7832	
-2.78931	
-2.78168	
-2.78625	
-2.78015	
-2.78168	
-2.78168	
-2.78473	
-2.78473	
-2.7832	
-2.7832	
-2.78625	
-2.78473	
-2.78625	
-2.78473	
-2.78473	
-2.78473	
-2.78473	
-2.78168	
-2.78473	
-2.78473	
-2.78168	
-2.78473	
-2.78015	
-2.78168	
-2.78473	
-2.78168	
-2.78473	
-2.78473	
-2.7832	
-2.78473	
-2.78015	
-2.78168	
-2.78015	
-2.78015	
-2.78015	
-2.78015	
-2.78015	
-2.77863	
-2.7832	
-2.77863	
-2.78168	
-2.78168	
-2.78015	
-2.7832	
-2.78473	
-2.78625	
-2.78168	
-2.78473	
-2.78168	
-2.77863	
-2.78015	
-2.78168	
-2.78015	
-2.78015	
-2.77863	
-2.78015	
-2.78168	
-2.78473	
-2.77863	
-2.78168	
-2.78168	
-2.7832	
-2.78168	
-2.78168	
-2.77863	
-2.77863	
-2.7771	
-2.77863	
-2.7771	
-2.7771	
-2.77405	
-2.77557	
-2.77557	
-2.77557	
-2.77863	
-2.78015	
-2.77863	
-2.7771	
-2.77557	
-2.77863	
-2.77863	
-2.77557	
-2.77863	
-2.7771	
-2.77405	
-2.77557	
-2.7771	
-2.77557	
-2.7771	
-2.77405	
-2.77557	
-2.77863	
-2.7771	
-2.77863	
-2.7771	
-2.7771	
-2.77863	
-2.77863	
-2.77863	
-2.7771	
-2.77557	
-2.77405	
-2.77557	
-2.77405	
-2.77405	
-2.7771	
-2.77557	
-2.7771	
-2.77557	
-2.77557	
-2.77863	
-2.77557	
-2.77863	
-2.78015	
-2.78015	
-2.77405	
-2.77252	
-2.77557	
-2.7771	
-2.77405	
-2.77405	
-2.77405	
-2.77405	
-2.77557	
-2.77405	
-2.77863	
-2.77557	
-2.7771	
-2.77863	
-2.7771	
-2.7771	
-2.77557	
-2.77405	
-2.77405	
-2.77557	
-2.77405	
-2.77405	
-2.77405	
-2.77252	
-2.77405	
-2.77252	
-2.7771	
-2.77405	
-2.77405	
-2.77405	
-2.77252	
-2.77252	
-2.77405	
-2.77405	
-2.76947	
-2.771	
-2.77405	
-2.771	
-2.771	
-2.77252	
-2.77557	
-2.77405	
-2.7771	
-2.77405	
-2.7771	
-2.77863	
-2.77252	
-2.77405	
-2.77252	
-2.77405	
-2.771	
-2.77252	
-2.77252	
-2.77252	
-2.771	
-2.77405	
-2.77557	
-2.771	
-2.771	
-2.771	
-2.77252	
-2.7771	
-2.77405	
-2.77405	
-2.77405	
-2.77405	
-2.77405	
-2.76947	
-2.76642	
-2.771	
-2.771	
-2.771	
-2.771	
-2.76642	
-2.76794	
-2.76947	
-2.771	
-2.771	
-2.77252	
-2.77252	
-2.77252	
-2.77252	
-2.771	
-2.77252	
-2.771	
-2.771	
-2.76947	
-2.771	
-2.76642	
-2.76947	
-2.76947	
-2.76794	
-2.77252	
-2.771	
-2.76947	
-2.77405	
-2.77252	
-2.771	
-2.77405	
-2.77252	
-2.76794	
-2.76947	
-2.76642	
-2.76642	
-2.76947	
-2.76642	
-2.76947	
-2.771	
-2.76947	
-2.77252	
-2.77252	
-2.77252	
-2.771	
-2.77252	
-2.771	
-2.76947	
-2.76947	
-2.76642	
-2.76642	
-2.771	
-2.76489	
-2.76642	
-2.76642	
-2.76794	
-2.76642	
-2.76642	
-2.76794	
-2.76642	
-2.76794	
-2.76642	
-2.771	
-2.76794	
-2.76947	
-2.77252	
-2.76337	
-2.76489	
-2.76642	
-2.76337	
-2.76184	
-2.76184	
-2.76337	
-2.76337	
-2.76642	
-2.76642	
-2.76794	
-2.76947	
-2.76947	
-2.76794	
-2.76642	
-2.76489	
-2.76184	
-2.76337	
-2.75879	
-2.76184	
-2.76184	
-2.75726	
-2.76489	
-2.75879	
-2.75879	
-2.76947	
-2.76489	
-2.76489	
-2.76337	
-2.76337	
-2.76337	
-2.76184	
-2.75879	
-2.75574	
-2.75726	
-2.75574	
-2.75421	
-2.75574	
-2.75574	
-2.75726	
-2.75726	
-2.75726	
-2.75574	
-2.75726	
-2.75574	
-2.75726	
-2.75726	
-2.75421	
-2.75574	
-2.75421	
-2.75269	
-2.75421	
-2.75421	
-2.75574	
-2.75421	
-2.75574	
-2.75879	
-2.76184	
-2.76337	
-2.76489	
-2.76184	
-2.76489	
-2.76642	
-2.76794	
-2.77405	
-2.77252	
-2.771	
-2.76642	
-2.76794	
-2.771	
-2.76642	
-2.76794	
-2.76642	
-2.76489	
-2.76642	
-2.76794	
-2.76794	
-2.771	
-2.76947	
-2.771	
-2.76947	
-2.76794	
-2.76489	
-2.76794	
-2.76337	
-2.76489	
-2.76337	
-2.76642	
-2.76642	
-2.76489	
-2.76337	
-2.76184	
-2.76489	
-2.76337	
-2.76184	
-2.76184	
-2.76184	
-2.76184	
-2.76337	
-2.76184	
-2.75574	
-2.75574	
-2.75574	
-2.75421	
-2.75879	
-2.75726	
-2.75726	
-2.75574	
-2.75726	
-2.75879	
-2.75574	
-2.75879	
-2.75726	
-2.75726	
-2.75574	
-2.75574	
-2.75574	
-2.75421	
-2.75269	
-2.75421	
-2.75269	
-2.75269	
-2.75116	
-2.75421	
-2.75116	
-2.75421	
-2.75726	
-2.75421	
-2.75421	
-2.75421	
-2.75574	
-2.75421	
-2.75421	
-2.75116	
-2.74963	
-2.75116	
-2.75269	
-2.75269	
-2.75116	
-2.75116	
-2.75269	
-2.75269	
-2.75269	
-2.75269	
-2.75116	
-2.75421	
-2.75879	
-2.75726	
-2.75574	
-2.75574	
-2.74963	
-2.74811	
-2.75269	
-2.75116	
-2.74963	
-2.75116	
-2.75116	
-2.74963	
-2.75116	
-2.75269	
-2.75269	
-2.75269	
-2.74963	
-2.75116	
-2.75116	
-2.74963	
-2.75116	
-2.74811	
-2.74963	
-2.74963	
-2.74963	
-2.74811	
-2.74811	
-2.74811	
-2.75116	
-2.75116	
-2.75421	
-2.75269	
-2.75116	
-2.74963	
-2.74811	
-2.74963	
-2.74506	
-2.74506	
-2.74658	
-2.74963	
-2.74811	
-2.74811	
-2.74811	
-2.74963	
-2.74811	
-2.74506	
-2.75116	
-2.74963	
-2.74811	
-2.74811	
-2.74963	
-2.74963	
-2.74811	
-2.74963	
-2.74811	
-2.74506	
-2.74811	
-2.74658	
-2.74658	
-2.74658	
-2.74658	
-2.74506	
-2.74506	
-2.74658	
-2.74353	
-2.74811	
-2.74506	
-2.74506	
-2.74658	
-2.74658	
-2.742	
-2.74048	
-2.742	
-2.742	
-2.73743	
-2.74048	
-2.73895	
-2.74048	
-2.742	
-2.74506	
-2.74353	
-2.74353	
-2.74048	
-2.74506	
-2.742	
-2.742	
-2.74658	
-2.74506	
-2.74353	
-2.74353	
-2.74353	
-2.74353	
-2.73895	
-2.742	
-2.742	
-2.73895	
-2.742	
-2.74353	
-2.742	
-2.742	
-2.74506	
-2.74506	
-2.74353	
-2.742	
-2.73895	
-2.74048	
-2.74048	
-2.74353	
-2.73895	
-2.74353	
-2.74048	
-2.742	
-2.742	
-2.73743	
-2.73895	
-2.73895	
-2.73895	
-2.74048	
-2.74048	
-2.74048	
-2.74048	
-2.74048	
-2.7359	
-2.73895	
-2.74048	
-2.73895	
-2.73895	
-2.73743	
-2.73743	
-2.74048	
-2.74048	
-2.74048	
-2.74048	
-2.74048	
-2.73895	
-2.74048	
-2.74048	
-2.73895	
-2.73743	
-2.73743	
-2.73743	
-2.73895	
-2.73895	
-2.74048	
-2.73895	
-2.73743	
-2.74353	
-2.74353	
-2.742	
-2.74048	
-2.74048	
-2.74048	
-2.74048	
-2.73743	
-2.73438	
-2.73438	
-2.7359	
-2.73132	
-2.73743	
-2.74048	
-2.74048	
-2.73743	
-2.73895	
-2.74353	
-2.7359	
-2.74048	
-2.74048	
-2.74048	
-2.73895	
-2.73743	
-2.7359	
-2.73438	
-2.7359	
-2.73285	
-2.73438	
-2.73438	
-2.73438	
-2.73438	
-2.73743	
-2.7359	
-2.7359	
-2.73438	
-2.73895	
-2.73743	
-2.73285	
-2.73895	
-2.73743	
-2.73895	
-2.73285	
-2.73285	
-2.7359	
-2.7359	
-2.7359	
-2.73132	
-2.7298	
-2.73285	
-2.7359	
-2.7298	
-2.73438	
-2.73438	
-2.73438	
-2.73743	
-2.73895	
-2.73285	
-2.73438	
-2.7298	
-2.73132	
-2.7298	
-2.73132	
-2.73132	
-2.73132	
-2.73285	
-2.7298	
-2.73285	
-2.73438	
-2.7359	
-2.73285	
-2.73438	
-2.73132	
-2.73743	
-2.73132	
-2.73132	
-2.73285	
-2.73438	
-2.73438	
-2.73132	
-2.73132	
-2.73285	
-2.73132	
-2.73438	
-2.73285	
-2.73438	
-2.7359	
-2.73132	
-2.72675	
-2.7298	
-2.7298	
-2.72675	
-2.73132	
-2.73285	
-2.73285	
-2.73285	
-2.73132	
-2.72675	
-2.7298	
-2.73132	
-2.73132	
-2.73285	
-2.73132	
-2.73132	
-2.72675	
-2.73438	
-2.7359	
-2.73743	
-2.73132	
-2.72522	
-2.7298	
-2.72675	
-2.72675	
-2.73285	
-2.73132	
-2.73285	
-2.73438	
-2.7359	
-2.73438	
-2.73285	
-2.73285	
-2.73132	
-2.73132	
-2.73285	
-2.73285	
-2.73132	
-2.73132	
-2.72675	
-2.72675	
-2.72369	
-2.72522	
-2.72522	
-2.73132	
-2.73438	
-2.73438	
-2.7359	
-2.73438	
-2.73438	
-2.73132	
-2.72675	
-2.73285	
-2.73438	
-2.72675	
-2.73285	
-2.72217	
-2.73132	
-2.72675	
-2.7298	
-2.72675	
-2.73285	
-2.73438	
-2.73132	
-2.7298	
-2.73132	
-2.7298	
-2.7298	
-2.7298	
-2.73132	
-2.72522	
-2.72522	
-2.72522	
-2.72217	
-2.72369	
-2.72369	
-2.72217	
-2.72522	
-2.72675	
-2.72369	
-2.72369	
-2.72522	
-2.72522	
-2.72522	
-2.72675	
-2.72675	
-2.72064	
-2.72217	
-2.72369	
-2.72675	
-2.72522	
-2.72369	
-2.72369	
-2.72522	
-2.72064	
-2.72369	
-2.72675	
-2.72675	
-2.72522	
-2.73132	
-2.72675	
-2.7298	
-2.72675	
-2.72522	
-2.72522	
-2.72369	
-2.72522	
-2.72522	
-2.72522	
-2.7298	
-2.72675	
-2.73132	
-2.73132	
-2.72675	
-2.72522	
-2.73132	
-2.7298	
-2.72675	
-2.7298	
-2.72369	
-2.72369	
-2.72217	
-2.72064	
-2.72369	
-2.7298	
-2.72522	
-2.72522	
-2.72217	
-2.72369	
-2.72522	
-2.72522	
-2.72675	
-2.7298	
-2.72675	
-2.72522	
-2.7298	
-2.72675	
-2.72522	
-2.72522	
-2.72522	
-2.72369	
-2.72369	
-2.72522	
-2.72064	
-2.72064	
-2.72064	
-2.72369	
-2.72369	
-2.72522	
-2.72369	
-2.72064	
-2.72369	
-2.72217	
-2.72217	
-2.72064	
-2.72064	
-2.71912	
-2.71912	
-2.72064	
-2.72064	
-2.72217	
-2.72369	
-2.71912	
-2.72369	
-2.72064	
-2.72217	
-2.72064	
-2.71912	
-2.72217	
-2.72369	
-2.72217	
-2.72064	
-2.71912	
-2.72064	
-2.72064	
-2.71759	
-2.71759	
-2.71759	
-2.72064	
-2.72217	
-2.72369	
-2.72217	
-2.72217	
-2.72217	
-2.72064	
-2.71912	
-2.72064	
-2.71912	
-2.71912	
-2.71912	
-2.71912	
-2.72064	
-2.71606	
-2.71759	
-2.72064	
-2.71759	
-2.72064	
-2.71912	
-2.72217	
-2.72064	
-2.71759	
-2.71912	
-2.71912	
-2.71759	
-2.71301	
-2.71606	
-2.71606	
-2.71606	
-2.71759	
-2.71759	
-2.71454	
-2.71759	
-2.71912	
-2.71759	
-2.71606	
-2.71606	
-2.71912	
-2.72064	
-2.71454	
-2.71759	
-2.71912	
-2.71454	
-2.71606	
-2.71606	
-2.71301	
-2.71301	
-2.71759	
-2.71454	
-2.71759	
-2.71606	
-2.71912	
-2.71912	
-2.71759	
-2.71606	
-2.71912	
-2.71606	
-2.71454	
-2.71301	
-2.71301	
-2.71454	
-2.71454	
-2.71149	
-2.71301	
-2.71606	
-2.71454	
-2.71606	
-2.71606	
-2.71606	
-2.71454	
-2.71454	
-2.71759	
-2.71454	
-2.71454	
-2.71149	
-2.70996	
-2.71149	
-2.70691	
-2.71301	
-2.70996	
-2.70691	
-2.71149	
-2.71149	
-2.71301	
-2.71301	
-2.71301	
-2.71301	
-2.71301	
-2.70996	
-2.71301	
-2.71149	
-2.71149	
-2.70691	
-2.70996	
-2.70844	
-2.71301	
-2.70996	
-2.70996	
-2.70844	
-2.70996	
-2.71301	
-2.71301	
-2.71301	
-2.71149	
-2.70996	
-2.71149	
-2.70996	
-2.70844	
-2.70538	
-2.70538	
-2.70844	
-2.70691	
-2.70538	
-2.70691	
-2.70538	
-2.70691	
-2.70844	
-2.70691	
-2.70844	
-2.71454	
-2.70844	
-2.70996	
-2.70691	
-2.70844	
-2.70691	
-2.70386	
-2.70538	
-2.70691	
-2.70538	
-2.70538	
-2.70386	
-2.70538	
-2.70691	
-2.70996	
-2.70996	
-2.70691	
-2.70844	
-2.70844	
-2.70691	
-2.70691	
-2.70538	
-2.70844	
-2.70691	
-2.70691	
-2.70691	
-2.70691	
-2.70691	
-2.70691	
-2.70844	
-2.71149	
-2.71149	
-2.70996	
-2.70996	
-2.70996	
-2.71301	
-2.71454	
-2.71301	
-2.70996	
-2.71149	
-2.71454	
-2.71301	
-2.71606	
-2.71759	
-2.71759	
-2.71759	
-2.71606	
-2.71759	
-2.72064	
-2.71912	
-2.72064	
-2.72064	
-2.72217	
-2.72064	
-2.72217	
-2.71759	
-2.71759	
-2.71454	
-2.71301	
-2.71301	
-2.71606	
-2.71759	
-2.71606	
-2.71606	
-2.71606	
-2.71606	
-2.71606	
-2.71454	
-2.71606	
-2.71606	
-2.71454	
-2.71454	
-2.71454	
-2.71149	
-2.70996	
-2.70996	
-2.71149	
-2.70996	
-2.70844	
-2.70996	
-2.70996	
-2.71149	
-2.71149	
-2.70844	
-2.71149	
-2.71149	
-2.71149	
-2.71301	
-2.70538	
-2.70996	
-2.70844	
-2.70996	
-2.70996	
-2.70996	
-2.70844	
-2.70844	
-2.70996	
-2.70996	
-2.70996	
-2.70844	
-2.71149	
-2.70996	
-2.70844	
-2.70996	
-2.70844	
-2.70844	
-2.70386	
-2.70538	
-2.70691	
-2.70538	
-2.70996	
-2.70844	
-2.70538	
-2.70844	
-2.70844	
-2.70996	
-2.70996	
-2.70996	
-2.70691	
-2.70691	
-2.70844	
-2.70691	
-2.70538	
-2.70538	
-2.70538	
-2.70844	
-2.70538	
-2.70844	
-2.70996	
-2.70844	
-2.71149	
-2.71301	
-2.71301	
-2.71301	
-2.71301	
-2.70844	
-2.70996	
-2.71301	
-2.70844	
-2.70844	
-2.71149	
-2.70844	
-2.71149	
-2.70538	
-2.70691	
-2.70844	
-2.70996	
-2.71149	
-2.71149	
-2.70996	
-2.71301	
-2.71149	
-2.71149	
-2.71149	
-2.70691	
-2.70844	
-2.70691	
-2.70538	
-2.70691	
-2.70844	
-2.70691	
-2.70538	
-2.70691	
-2.70691	
-2.70691	
-2.71301	
-2.70844	
-2.70386	
-2.70691	
-2.70691	
-2.70538	
-2.70538	
-2.70386	
-2.70233	
-2.70386	
-2.70538	
-2.70233	
-2.70233	
-2.70691	
-2.70386	
-2.70386	
-2.70538	
-2.70691	
-2.70081	
-2.70386	
-2.70386	
-2.70386	
-2.70233	
-2.70386	
-2.70386	
-2.70233	
-2.70538	
-2.70233	
-2.70233	
-2.70081	
-2.70386	
-2.70233	
-2.70233	
-2.70538	
-2.70233	
-2.70386	
-2.70386	
-2.70386	
-2.70386	
-2.70233	
-2.70081	
-2.69775	
-2.70081	
-2.70233	
-2.69928	
-2.69775	
-2.70233	
-2.70081	
-2.70233	
-2.69928	
-2.70081	
-2.70233	
-2.70233	
-2.69928	
-2.70233	
-2.70538	
-2.70081	
-2.70081	
-2.6947	
-2.70081	
-2.70081	
-2.70233	
-2.69928	
-2.70081	
-2.69928	
-2.70081	
-2.70233	
-2.70233	
-2.69928	
-2.70233	
-2.70233	
-2.69928	
-2.70538	
-2.70233	
-2.69928	
-2.69928	
-2.69775	
-2.69928	
-2.69775	
-2.69775	
-2.69928	
-2.69928	
-2.69775	
-2.69775	
-2.69928	
-2.70233	
-2.69928	
-2.70233	
-2.69775	
-2.69928	
-2.69928	
-2.69775	
-2.69775	
-2.69775	
-2.69775	
-2.6947	
-2.69775	
-2.69165	
-2.69775	
-2.69012	
-2.69165	
-2.69318	
-2.69165	
-2.69165	
-2.6947	
-2.69318	
-2.69012	
-2.69165	
-2.69012	
-2.69012	
-2.69012	
-2.69165	
-2.6886	
-2.69012	
-2.69012	
-2.69318	
-2.69775	
-2.6947	
-2.69165	
-2.69165	
-2.69012	
-2.69165	
-2.6947	
-2.69165	
-2.69318	
-2.69165	
-2.69165	
-2.69012	
-2.68707	
-2.69012	
-2.69165	
-2.69012	
-2.69012	
-2.69012	
-2.69012	
-2.69318	
-2.69012	
-2.69775	
-2.6947	
-2.69318	
-2.69012	
-2.69012	
-2.6886	
-2.68707	
-2.69012	
-2.68707	
-2.6886	
-2.6886	
-2.69165	
-2.6886	
-2.69012	
-2.69012	
-2.69318	
-2.69165	
-2.69165	
-2.69165	
-2.69012	
-2.69165	
-2.69012	
-2.6886	
-2.68707	
-2.69012	
-2.6886	
-2.68707	
-2.69012	
-2.69012	
-2.69165	
-2.69165	
-2.69165	
-2.69318	
-2.69165	
-2.69012	
-2.69012	
-2.68402	
-2.6886	
-2.6886	
-2.69012	
-2.68555	
-2.68707	
-2.6886	
-2.68707	
-2.69012	
-2.6886	
-2.69012	
-2.69012	
-2.69012	
-2.69318	
-2.69318	
-2.6886	
-2.69012	
-2.68707	
-2.6886	
-2.6886	
-2.69012	
-2.69165	
-2.69012	
-2.69165	
-2.69318	
-2.69012	
-2.6886	
-2.6886	
-2.6886	
-2.68707	
-2.6886	
-2.6886	
-2.6886	
-2.6886	
-2.68707	
-2.68707	
-2.68707	
-2.69165	
-2.68707	
-2.68707	
-2.68555	
-2.6886	
-2.6886	
-2.69165	
-2.68707	
-2.68707	
-2.69165	
-2.69012	
-2.68707	
-2.6886	
-2.68555	
-2.68555	
-2.68707	
-2.68707	
-2.68555	
-2.68707	
-2.6886	
-2.68707	
-2.69012	
-2.69165	
-2.69318	
-2.6886	
-2.69012	
-2.6886	
-2.69012	
-2.6886	
-2.69012	
-2.69165	
-2.68707	
-2.68402	
-2.68555	
-2.68707	
-2.68402	
-2.6886	
-2.68707	
-2.6886	
-2.69165	
-2.6886	
-2.69012	
-2.69012	
-2.69165	
-2.69165	
-2.69012	
-2.69012	
-2.68707	
-2.68555	
-2.68555	
-2.68402	
-2.68555	
-2.68097	
-2.68707	
-2.68707	
-2.6886	
-2.69165	
-2.6886	
-2.68707	
-2.69165	
-2.69012	
-2.6886	
-2.69165	
-2.68555	
-2.68707	
-2.68555	
-2.68707	
-2.68402	
-2.68402	
-2.68555	
-2.68707	
-2.68402	
-2.68707	
-2.6886	
-2.6886	
-2.6886	
-2.69012	
-2.6886	
-2.68555	
-2.68707	
-2.6886	
-2.68402	
-2.6825	
-2.6825	
-2.68555	
-2.6825	
-2.68555	
-2.6825	
-2.68402	
-2.68707	
-2.6886	
-2.68707	
-2.68707	
-2.68555	
-2.6825	
-2.68707	
-2.68707	
-2.6825	
-2.68402	
-2.6825	
-2.6825	
-2.68402	
-2.68097	
-2.67792	
-2.68097	
-2.6825	
-2.68402	
-2.68555	
-2.6825	
-2.68555	
-2.6825	
-2.68097	
-2.68555	
-2.6825	
-2.6825	
-2.6825	
-2.68402	
-2.68097	
-2.67792	
-2.6825	
-2.68097	
-2.68097	
-2.68555	
-2.68555	
-2.68097	
-2.6825	
-2.6825	
-2.68097	
-2.67944	
-2.68402	
-2.68097	
-2.67944	
-2.68097	
-2.68097	
-2.68097	
-2.68097	
-2.67944	
-2.6825	
-2.6825	
-2.6825	
-2.68097	
-2.67944	
-2.68402	
-2.6825	
-2.6825	
-2.6825	
-2.67944	
-2.67792	
-2.67639	
-2.68402	
-2.67792	
-2.67944	
-2.67944	
-2.67944	
-2.68097	
-2.67792	
-2.67944	
-2.6825	
-2.67944	
-2.67792	
-2.68097	
-2.67944	
-2.68097	
-2.6825	
-2.67792	
-2.67639	
-2.67944	
-2.67944	
-2.67792	
-2.67792	
-2.67792	
-2.67944	
-2.67944	
-2.67944	
-2.67944	
-2.67944	
-2.67792	
-2.67487	
-2.67792	
-2.67944	
-2.67639	
-2.67334	
-2.67334	
-2.67334	
-2.67334	
-2.67334	
-2.67487	
-2.67487	
-2.67487	
-2.67792	
-2.67639	
-2.67792	
-2.67639	
-2.67334	
-2.67334	
-2.67487	
-2.67639	
-2.67181	
-2.67334	
-2.67181	
-2.67181	
-2.67487	
-2.67181	
-2.67487	
-2.67029	
-2.67487	
-2.67639	
-2.67487	
-2.67334	
-2.67487	
-2.67639	
-2.67334	
-2.67487	
-2.67487	
-2.67334	
-2.67334	
-2.67334	
-2.67181	
-2.67334	
-2.67181	
-2.67334	
-2.67334	
-2.67639	
-2.67487	
-2.67639	
-2.67639	
-2.67639	
-2.67792	
-2.67639	
-2.67639	
-2.67334	
-2.67334	
-2.67181	
-2.67487	
-2.67334	
-2.67334	
-2.67334	
-2.67181	
-2.67181	
-2.67487	
-2.67181	
-2.67181	
-2.67181	
-2.67334	
-2.67487	
-2.67334	
-2.67181	
-2.66876	
-2.66724	
-2.67181	
-2.67181	
-2.67334	
-2.67029	
-2.67029	
-2.66876	
-2.67181	
-2.67334	
-2.67181	
-2.67029	
-2.67334	
-2.66876	
-2.67029	
-2.67334	
-2.66876	
-2.66724	
-2.66724	
-2.67029	
-2.66113	
-2.66418	
-2.66266	
-2.66724	
-2.66876	
-2.66418	
-2.67181	
-2.66876	
-2.66724	
-2.66724	
-2.66724	
-2.66724	
-2.66724	
-2.65961	
-2.66266	
-2.66113	
-2.66266	
-2.66418	
-2.66876	
-2.66418	
-2.66418	
-2.66724	
-2.67029	
-2.67029	
-2.67181	
-2.67334	
-2.67639	
-2.67487	
-2.67792	
-2.67792	
-2.67944	
-2.67639	
-2.67639	
-2.67639	
-2.67487	
-2.67639	
-2.67944	
-2.67792	
-2.67944	
-2.67944	
-2.67944	
-2.67792	
-2.68097	
-2.67944	
-2.67944	
-2.6825	
-2.67639	
-2.67639	
-2.67639	
-2.67181	
-2.67334	
-2.67181	
-2.67181	
-2.67181	
-2.67181	
-2.67487	
-2.67334	
-2.67181	
-2.67334	
-2.67181	
-2.67181	
-2.67181	
-2.67029	
-2.66724	
-2.66418	
-2.66876	
-2.66724	
-2.66724	
-2.66418	
-2.66724	
-2.66418	
-2.66113	
-2.66418	
-2.66876	
-2.66418	
-2.66876	
-2.66266	
-2.66418	
-2.66418	
-2.66266	
-2.66418	
-2.66113	
-2.66724	
-2.66266	
-2.66113	
-2.66266	
-2.66418	
-2.66113	
-2.66724	
-2.66418	
-2.66418	
-2.65961	
-2.66724	
-2.66876	
-2.66418	
-2.66724	
-2.66418	
-2.66418	
-2.66113	
-2.66266	
-2.66113	
-2.66266	
-2.66418	
-2.66266	
-2.66113	
-2.66418	
-2.66418	
-2.66266	
-2.66113	
-2.66418	
-2.66266	
-2.66418	
-2.66418	
-2.65961	
-2.65808	
-2.65808	
-2.65961	
-2.65961	
-2.66113	
-2.65808	
-2.65961	
-2.65656	
-2.66113	
-2.66113	
-2.66113	
-2.66113	
-2.66266	
-2.65961	
-2.66266	
-2.66724	
-2.65961	
-2.66113	
-2.65808	
-2.65808	
-2.65656	
-2.65961	
-2.65961	
-2.65808	
-2.65808	
-2.65808	
-2.66266	
-2.65808	
-2.65808	
-2.65656	
-2.66113	
-2.65656	
-2.65656	
-2.65656	
-2.65503	
-2.65503	
-2.65503	
-2.65503	
-2.65808	
-2.65808	
-2.6535	
-2.65656	
-2.65961	
-2.65808	
-2.65808	
-2.65656	
-2.65656	
-2.65656	
-2.65808	
-2.65503	
-2.6535	
-2.6535	
-2.65503	
-2.65503	
-2.65503	
-2.65503	
-2.65198	
-2.65198	
-2.65503	
-2.65656	
-2.65503	
-2.65808	
-2.65503	
-2.65656	
-2.65503	
-2.65656	
-2.65198	
-2.65503	
-2.6535	
-2.6535	
-2.6535	
-2.6535	
-2.65198	
-2.65198	
-2.6535	
-2.65503	
-2.6535	
-2.65198	
-2.65045	
-2.65503	
-2.6535	
-2.65198	
-2.65198	
-2.64893	
-2.64893	
-2.64893	
-2.65198	
-2.65198	
-2.65503	
-2.64893	
-2.65198	
-2.6535	
-2.6535	
-2.65503	
-2.6535	
-2.65045	
-2.6535	
-2.65198	
-2.6535	
-2.6535	
-2.64893	
-2.6535	
-2.65045	
-2.65198	
-2.65045	
-2.65198	
-2.65198	
-2.65045	
-2.6535	
-2.65503	
-2.65503	
-2.6535	
-2.65503	
-2.65045	
-2.6535	
-2.65503	
-2.65045	
-2.65045	
-2.64893	
-2.65198	
-2.65198	
-2.65198	
-2.65198	
-2.6535	
-2.65503	
-2.65198	
-2.65198	
-2.65198	
-2.65198	
-2.6535	
-2.6535	
-2.6535	
-2.65198	
-2.65045	
-2.64893	
-2.6474	
-2.6474	
-2.6535	
-2.64893	
-2.65198	
-2.64893	
-2.6474	
-2.65503	
-2.65198	
-2.65045	
-2.65045	
-2.65045	
-2.65045	
-2.65045	
-2.6474	
-2.64893	
-2.6474	
-2.6535	
-2.64893	
-2.65045	
-2.65045	
-2.64587	
-2.6474	
-2.65198	
-2.65198	
-2.65198	
-2.65198	
-2.65045	
-2.64587	
-2.64893	
-2.65198	
-2.64893	
-2.64587	
-2.65045	
-2.6474	
-2.64893	
-2.64893	
-2.65198	
-2.64893	
-2.64893	
-2.6474	
-2.6474	
-2.64893	
-2.64893	
-2.64893	
-2.65045	
-2.6535	
-2.64893	
-2.65045	
-2.6474	
-2.64893	
-2.6474	
-2.6474	
-2.64893	
-2.6474	
-2.6474	
-2.6474	
-2.6535	
-2.65045	
-2.64893	
-2.65045	
-2.65045	
-2.65045	
-2.65045	
-2.6474	
-2.64893	
-2.6474	
-2.6474	
-2.6474	
-2.64587	
-2.6474	
-2.6474	
-2.64587	
-2.64587	
-2.6474	
-2.65045	
-2.6474	
-2.64435	
-2.64435	
-2.64893	
-2.64893	
-2.64282	
-2.6474	
-2.64435	
-2.64587	
-2.64587	
-2.64435	
-2.64435	
-2.64435	
-2.65045	
-2.6474	
-2.6474	
-2.64587	
-2.6474	
-2.65045	
-2.64587	
-2.6474	
-2.64893	
-2.6413	
-2.64282	
-2.63977	
-2.64435	
-2.6413	
-2.64587	
-2.64282	
-2.64282	
-2.64587	
-2.64282	
-2.64435	
-2.64587	
-2.64587	
-2.64435	
-2.64282	
-2.64435	
-2.64435	
-2.64435	
-2.64282	
-2.64282	
-2.63977	
-2.64587	
-2.64282	
-2.6413	
-2.6413	
-2.64435	
-2.64282	
-2.6474	
-2.64282	
-2.6413	
-2.6413	
-2.64282	
-2.6413	
-2.63977	
-2.63672	
-2.63977	
-2.63824	
-2.63824	
-2.63977	
-2.6413	
-2.63977	
-2.64282	
-2.64282	
-2.63977	
-2.64587	
-2.64282	
-2.6413	
-2.63977	
-2.64435	
-2.63977	
-2.63977	
-2.63824	
-2.63977	
-2.63977	
-2.63977	
-2.63824	
-2.6413	
-2.63977	
-2.64282	
-2.6413	
-2.64282	
-2.64282	
-2.63977	
-2.6413	
-2.63977	
-2.64282	
-2.63977	
-2.63672	
-2.63672	
-2.63977	
-2.63977	
-2.63824	
-2.63824	
-2.63824	
-2.63824	
-2.63824	
-2.63977	
-2.63977	
-2.63672	
-2.6413	
-2.63977	
-2.63672	
-2.63672	
-2.63519	
-2.63214	
-2.63519	
-2.63519	
-2.63519	
-2.63672	
-2.63519	
-2.63214	
-2.63824	
-2.63672	
-2.63672	
-2.63519	
-2.63672	
-2.63519	
-2.63672	
-2.63672	
-2.63672	
-2.63672	
-2.63062	
-2.63214	
-2.63672	
-2.63214	
-2.63214	
-2.63672	
-2.63519	
-2.63519	
-2.63519	
-2.63672	
-2.63062	
-2.63214	
-2.63062	
-2.63214	
-2.63214	
-2.63214	
-2.63062	
-2.63062	
-2.63062	
-2.63214	
-2.63062	
-2.62909	
-2.62909	
-2.63062	
-2.63214	
-2.63214	
-2.63062	
-2.63519	
-2.62909	
-2.63214	
-2.63214	
-2.63062	
-2.63214	
-2.62604	
-2.63062	
-2.63062	
-2.62756	
-2.62909	
-2.63062	
-2.63214	
-2.63214	
-2.62909	
-2.63214	
-2.63062	
-2.63062	
-2.63214	
-2.63214	
-2.63062	
-2.63062	
-2.63214	
-2.63062	
-2.62756	
-2.62756	
-2.62756	
-2.63062	
-2.63062	
-2.63214	
-2.63062	
-2.63519	
-2.63519	
-2.63214	
-2.63977	
-2.63214	
-2.63062	
-2.63062	
-2.62909	
-2.63062	
-2.62451	
-2.62756	
-2.63062	
-2.62909	
-2.63062	
-2.62909	
-2.63062	
-2.63062	
-2.63214	
-2.63672	
-2.63519	
-2.63214	
-2.63062	
-2.63062	
-2.62756	
-2.62909	
-2.62604	
-2.62756	
-2.63062	
-2.62909	
-2.62909	
-2.63062	
-2.63062	
-2.63214	
-2.63062	
-2.62909	
-2.62451	
-2.63214	
-2.62909	
-2.63214	
-2.63062	
-2.62909	
-2.63062	
-2.62756	
-2.62909	
-2.62451	
-2.62451	
-2.62909	
-2.62604	
-2.62756	
-2.62604	
-2.62756	
-2.62604	
-2.62909	
-2.62909	
-2.62451	
-2.62756	
-2.62909	
-2.62756	
-2.62604	
-2.62299	
-2.62299	
-2.62604	
-2.62451	
-2.62451	
-2.62451	
-2.62299	
-2.62451	
-2.62756	
-2.62604	
-2.62604	
-2.62604	
-2.63062	
-2.62756	
-2.62604	
-2.62451	
-2.62299	
-2.62451	
-2.62451	
-2.62299	
-2.62451	
-2.62451	
-2.61993	
-2.61993	
-2.62146	
-2.62299	
-2.62451	
-2.62299	
-2.62299	
-2.62604	
-2.62146	
-2.62299	
-2.62299	
-2.62146	
-2.62146	
-2.61993	
-2.61993	
-2.61993	
-2.62146	
-2.62146	
-2.62146	
-2.62146	
-2.62299	
-2.62146	
-2.62299	
-2.62146	
-2.61993	
-2.62451	
-2.62146	
-2.62146	
-2.62146	
-2.61688	
-2.61688	
-2.61841	
-2.62146	
-2.61841	
-2.61993	
-2.61688	
-2.61993	
-2.61536	
-2.61688	
-2.61841	
-2.61993	
-2.61993	
-2.61841	
-2.61536	
-2.61536	
-2.6123	
-2.61841	
-2.61536	
-2.61383	
-2.61688	
-2.61536	
-2.61688	
-2.61383	
-2.61383	
-2.61383	
-2.6123	
-2.61383	
-2.61383	
-2.61841	
-2.61841	
-2.61536	
-2.61688	
-2.61993	
-2.61841	
-2.62146	
-2.61841	
-2.62146	
-2.62299	
-2.62604	
-2.62604	
-2.62604	
-2.62451	
-2.62756	
-2.62146	
-2.62604	
-2.62756	
-2.62451	
-2.62299	
-2.62451	
-2.62451	
-2.62451	
-2.62451	
-2.62451	
-2.62451	
-2.62299	
-2.62299	
-2.62146	
-2.62299	
-2.62299	
-2.62146	
-2.62299	
-2.62451	
-2.61993	
-2.62146	
-2.61688	
-2.61841	
-2.61993	
-2.61841	
-2.61993	
-2.61993	
-2.61841	
-2.61841	
-2.61841	
-2.61536	
-2.61688	
-2.61841	
-2.61841	
-2.62146	
-2.61841	
-2.61688	
-2.6123	
-2.61078	
-2.61383	
-2.61536	
-2.61078	
-2.60925	
-2.61383	
-2.61383	
-2.61383	
-2.61383	
-2.61383	
-2.61536	
-2.61536	
-2.6123	
-2.61383	
-2.61536	
-2.61383	
-2.60925	
-2.60925	
-2.61078	
-2.61078	
-2.61383	
-2.61078	
-2.61078	
-2.61383	
-2.61383	
-2.6123	
-2.60925	
-2.61536	
-2.6123	
-2.61536	
-2.61536	
-2.6123	
-2.6123	
-2.6123	
-2.61078	
-2.61383	
-2.60925	
-2.61078	
-2.61078	
-2.61078	
-2.6123	
-2.6123	
-2.61078	
-2.6123	
-2.61383	
-2.6123	
-2.61078	
-2.61078	
-2.60925	
-2.60773	
-2.60925	
-2.6062	
-2.60773	
-2.60773	
-2.60468	
-2.60925	
-2.60773	
-2.60925	
-2.6123	
-2.61078	
-2.60925	
-2.61078	
-2.6123	
-2.61078	
-2.61078	
-2.61078	
-2.61078	
-2.60773	
-2.61383	
-2.6123	
-2.61078	
-2.61078	
-2.60773	
-2.6123	
-2.60925	
-2.61383	
-2.6123	
-2.61688	
-2.6123	
-2.61383	
-2.61078	
-2.60925	
-2.61078	
-2.6062	
-2.6123	
-2.61078	
-2.60773	
-2.60925	
-2.60925	
-2.60925	
-2.61078	
-2.60925	
-2.6123	
-2.61078	
-2.61078	
-2.60773	
-2.60925	
-2.60925	
-2.60773	
-2.6062	
-2.6062	
-2.6062	
-2.6062	
-2.60773	
-2.6001	
-2.60468	
-2.6062	
-2.6062	
-2.60925	
-2.61078	
-2.60773	
-2.6062	
-2.6062	
-2.60773	
-2.60773	
-2.61078	
-2.60773	
-2.60468	
-2.60468	
-2.60315	
-2.60315	
-2.60468	
-2.60468	
-2.6062	
-2.60773	
-2.60925	
-2.6062	
-2.60468	
-2.60773	
-2.60925	
-2.60773	
-2.6062	
-2.60773	
-2.60315	
-2.60468	
-2.60468	
-2.60315	
-2.6062	
-2.6062	
-2.6062	
-2.60468	
-2.60773	
-2.6062	
-2.60925	
-2.61078	
-2.60925	
-2.60925	
-2.60468	
-2.6062	
-2.60468	
-2.6062	
-2.6062	
-2.60925	
-2.60468	
-2.60315	
-2.60468	
-2.6062	
-2.60468	
-2.60773	
-2.6062	
-2.6062	
-2.6001	
-2.60773	
-2.60315	
-2.60468	
-2.6062	
-2.60315	
-2.6001	
-2.60468	
-2.60315	
-2.60315	
-2.60468	
-2.60315	
-2.6001	
-2.60468	
-2.6062	
-2.60315	
-2.59857	
-2.59857	
-2.6062	
-2.60315	
-2.60315	
-2.6001	
-2.59705	
-2.59857	
-2.59857	
-2.59705	
-2.59705	
-2.60315	
-2.59705	
-2.60315	
-2.60315	
-2.59705	
-2.6001	
-2.6001	
-2.6001	
-2.59857	
-2.6001	
-2.59705	
-2.59857	
-2.59399	
-2.60315	
-2.59552	
-2.59552	
-2.59857	
-2.59857	
-2.59705	
-2.59705	
-2.60315	
-2.6001	
-2.59857	
-2.6001	
-2.59857	
-2.59705	
-2.6001	
-2.60468	
-2.59399	
-2.59399	
-2.59399	
-2.59552	
-2.59705	
-2.59399	
-2.59552	
-2.59552	
-2.6001	
-2.59857	
-2.59552	
-2.6001	
-2.59857	
-2.60315	
-2.59857	
-2.59705	
-2.59857	
-2.59247	
-2.59247	
-2.59552	
-2.59552	
-2.59399	
-2.59399	
-2.59399	
-2.59552	
-2.59857	
-2.59857	
-2.59705	
-2.59705	
-2.6001	
-2.6001	
-2.59857	
-2.59857	
-2.59552	
-2.59399	
-2.59399	
-2.59399	
-2.59705	
-2.59552	
-2.59247	
-2.59399	
-2.59552	
-2.59552	
-2.59705	
-2.59705	
-2.59552	
-2.59705	
-2.59552	
-2.59552	
-2.59552	
-2.59399	
-2.58942	
-2.59247	
-2.59094	
-2.58942	
-2.59094	
-2.59094	
-2.59094	
-2.59094	
-2.59094	
-2.58942	
-2.59399	
-2.59247	
-2.59247	
-2.59247	
-2.59247	
-2.59247	
-2.58789	
-2.58789	
-2.58789	
-2.58789	
-2.58789	
-2.58942	
-2.58636	
-2.58942	
-2.59094	
-2.58942	
-2.59094	
-2.59094	
-2.59399	
-2.58942	
-2.58942	
-2.58942	
-2.58789	
-2.58789	
-2.58789	
-2.58789	
-2.58789	
-2.58942	
-2.58942	
-2.58484	
-2.58636	
-2.58789	
-2.58789	
-2.58789	
-2.58789	
-2.58942	
-2.58331	
-2.58789	
-2.58484	
-2.58331	
-2.58484	
-2.58484	
-2.58636	
-2.58484	
-2.58636	
-2.58484	
-2.58789	
-2.58942	
-2.58942	
-2.58789	
-2.58789	
-2.58636	
-2.58636	
-2.58484	
-2.59094	
-2.58484	
-2.58484	
-2.58484	
-2.58636	
-2.58484	
-2.58484	
-2.58331	
-2.58331	
-2.58484	
-2.58636	
-2.58179	
-2.58484	
-2.58636	
-2.58179	
-2.58484	
-2.58484	
-2.58484	
-2.58331	
-2.58179	
-2.58636	
-2.58331	
-2.58179	
-2.58331	
-2.58331	
-2.58331	
-2.58179	
-2.58484	
-2.58331	
-2.58484	
-2.58484	
-2.58636	
-2.58636	
-2.58331	
-2.58484	
-2.57721	
-2.57874	
-2.58331	
-2.57874	
-2.57874	
-2.57874	
-2.58026	
-2.57874	
-2.58026	
-2.58179	
-2.58179	
-2.58331	
-2.58331	
-2.58636	
-2.58179	
-2.58179	
-2.58331	
-2.58026	
-2.57874	
-2.58026	
-2.57874	
-2.58026	
-2.58331	
-2.57874	
-2.58026	
-2.58179	
-2.58331	
-2.58179	
-2.58026	
-2.58026	
-2.58026	
-2.58331	
-2.57874	
-2.58179	
-2.58026	
-2.57874	
-2.57721	
-2.57874	
-2.57874	
-2.58026	
-2.58179	
-2.57721	
-2.58179	
-2.58179	
-2.58026	
-2.58026	
-2.58179	
-2.58179	
-2.58179	
-2.58179	
-2.57721	
-2.57874	
-2.57721	
-2.57874	
-2.57874	
-2.58026	
-2.57874	
-2.57874	
-2.58331	
-2.58331	
-2.58179	
-2.58484	
-2.58026	
-2.58026	
-2.57874	
-2.58179	
-2.58026	
-2.57874	
-2.57874	
-2.57874	
-2.57721	
-2.57874	
-2.58026	
-2.57874	
-2.57568	
-2.58026	
-2.58026	
-2.58026	
-2.58331	
-2.58026	
-2.57721	
-2.57721	
-2.57568	
-2.57263	
-2.57568	
-2.57568	
-2.57568	
-2.57568	
-2.57721	
-2.57874	
-2.57874	
-2.57874	
-2.58179	
-2.58331	
-2.58026	
-2.58026	
-2.58331	
-2.58179	
-2.58179	
-2.58026	
-2.57874	
-2.57874	
-2.57568	
-2.57568	
-2.57721	
-2.57874	
-2.57721	
-2.57568	
-2.57874	
-2.57721	
-2.57568	
-2.57721	
-2.57416	
-2.57568	
-2.57568	
-2.57874	
-2.57416	
-2.57416	
-2.57568	
-2.57721	
-2.57263	
-2.57568	
-2.57263	
-2.57263	
-2.57263	
-2.57721	
-2.57568	
-2.57568	
-2.57721	
-2.57568	
-2.57568	
-2.57416	
-2.57416	
-2.57416	
-2.57111	
-2.57263	
-2.57416	
-2.57263	
-2.56805	
-2.57263	
-2.57111	
-2.57568	
-2.57416	
-2.57416	
-2.57263	
-2.57416	
-2.57111	
-2.56653	
-2.57263	
-2.57263	
-2.57111	
-2.57111	
-2.56805	
-2.57263	
-2.56805	
-2.57111	
-2.56805	
-2.56653	
-2.57111	
-2.57263	
-2.57263	
-2.57111	
-2.57263	
-2.57263	
-2.57111	
-2.57263	
-2.56653	
-2.565	
-2.57111	
-2.56805	
-2.56653	
-2.56653	
-2.56348	
-2.56042	
-2.56348	
-2.565	
-2.565	
-2.56653	
-2.565	
-2.56348	
-2.56348	
-2.56042	
-2.565	
-2.56195	
-2.565	
-2.56653	
-2.56653	
-2.56805	
-2.56805	
-2.57263	
-2.56653	
-2.57111	
-2.57263	
-2.57416	
-2.57263	
-2.57874	
-2.57721	
-2.57721	
-2.57874	
-2.57568	
-2.57416	
-2.57263	
-2.57416	
-2.57568	
-2.57416	
-2.57263	
-2.57416	
-2.57263	
-2.57721	
-2.57721	
-2.57721	
-2.57568	
-2.57416	
-2.57416	
-2.57416	
-2.57721	
-2.57416	
-2.56805	
-2.56805	
-2.57416	
-2.57111	
-2.57111	
-2.565	
-2.56653	
-2.56653	
-2.57263	
-2.56805	
-2.57263	
-2.56805	
-2.56653	
-2.565	
-2.56805	
-2.56653	
-2.565	
-2.56348	
-2.56348	
-2.56195	
-2.56195	
-2.56348	
-2.56042	
-2.5589	
-2.56195	
-2.56653	
-2.56195	
-2.56348	
-2.56348	
-2.56348	
-2.56042	
-2.56195	
-2.56042	
-2.55737	
-2.56042	
-2.55737	
-2.56042	
-2.55585	
-2.56042	
-2.56042	
-2.55585	
-2.56042	
-2.5589	
-2.5589	
-2.56348	
-2.55737	
-2.56042	
-2.55737	
-2.5589	
-2.55432	
-2.55737	
-2.55432	
-2.55585	
-2.55585	
-2.55737	
-2.55127	
-2.55585	
-2.55737	
-2.55585	
-2.5589	
-2.55737	
-2.5589	
-2.55737	
-2.55737	
-2.55737	
-2.5528	
-2.55585	
-2.55127	
-2.5528	
-2.55432	
-2.55432	
-2.55127	
-2.55432	
-2.5528	
-2.55585	
-2.55585	
-2.5528	
-2.54974	
-2.55585	
-2.55585	
-2.55432	
-2.55432	
-2.55585	
-2.55432	
-2.55127	
-2.55127	
-2.55127	
-2.5528	
-2.55127	
-2.54974	
-2.54974	
-2.55127	
-2.55432	
-2.55127	
-2.55127	
-2.55432	
-2.55432	
-2.55127	
-2.55432	
-2.5528	
-2.54974	
-2.5528	
-2.5528	
-2.55127	
-2.55127	
-2.55127	
-2.54974	
-2.55127	
-2.55127	
-2.55585	
-2.55127	
-2.5528	
-2.54974	
-2.54822	
-2.54974	
-2.55127	
-2.54822	
-2.55127	
-2.54974	
-2.54822	
-2.54822	
-2.55127	
-2.5528	
-2.54974	
-2.55127	
-2.55432	
-2.55127	
-2.55127	
-2.55127	
-2.55127	
-2.5528	
-2.55127	
-2.54974	
-2.54822	
-2.54669	
-2.54669	
-2.54822	
-2.54822	
-2.54822	
-2.5528	
-2.54974	
-2.55127	
-2.55432	
-2.54974	
-2.5528	
-2.5528	
-2.54822	
-2.55127	
-2.54974	
-2.54974	
-2.54822	
-2.54974	
-2.55127	
-2.55127	
-2.54974	
-2.54822	
-2.54974	
-2.55127	
-2.55127	
-2.5528	
-2.54974	
-2.5528	
-2.54974	
-2.5528	
-2.55127	
-2.54974	
-2.55127	
-2.54822	
-2.54822	
-2.54974	
-2.54974	
-2.55127	
-2.54974	
-2.55127	
-2.55127	
-2.54974	
-2.55127	
-2.55127	
-2.54517	
-2.55127	
-2.5528	
-2.54974	
-2.54974	
-2.55127	
-2.54517	
-2.54517	
-2.54517	
-2.54669	
-2.54517	
-2.54974	
-2.54517	
-2.54974	
-2.54822	
-2.54517	
-2.54669	
-2.54822	
-2.54974	
-2.54822	
-2.54669	
-2.54669	
-2.54364	
-2.54364	
-2.54517	
-2.54669	
-2.54517	
-2.54669	
-2.54669	
-2.54364	
-2.54669	
-2.54974	
-2.54517	
-2.54669	
-2.54517	
-2.54669	
-2.54517	
-2.54211	
-2.54364	
-2.54059	
-2.54059	
-2.54059	
-2.54211	
-2.53906	
-2.54364	
-2.53906	
-2.54211	
-2.54669	
-2.54211	
-2.54059	
-2.54211	
-2.54517	
-2.54364	
-2.54211	
-2.54517	
-2.54364	
-2.54211	
-2.53906	
-2.54059	
-2.54059	
-2.54059	
-2.54059	
-2.54364	
-2.54211	
-2.54517	
-2.54517	
-2.54211	
-2.54059	
-2.54059	
-2.54211	
-2.54211	
-2.54211	
-2.54211	
-2.53601	
-2.54211	
-2.53601	
-2.53601	
-2.54059	
-2.54211	
-2.53906	
-2.54211	
-2.54364	
-2.54364	
-2.54059	
-2.54364	
-2.54211	
-2.53906	
-2.54364	
-2.54059	
-2.53601	
-2.54211	
-2.54211	
-2.54211	
-2.54364	
-2.54211	
-2.54211	
-2.54211	
-2.54211	
-2.54211	
-2.53906	
-2.54211	
-2.54211	
-2.53906	
-2.54059	
-2.54211	
-2.53601	
-2.54059	
-2.53601	
-2.53601	
-2.53601	
-2.53601	
-2.53906	
-2.53601	
-2.53906	
-2.54059	
-2.54059	
-2.53906	
-2.54059	
-2.53906	
-2.54059	
-2.54059	
-2.53601	
-2.53448	
-2.53448	
-2.54059	
-2.53448	
-2.53906	
-2.53296	
-2.53601	
-2.53448	
-2.53906	
-2.53906	
-2.53906	
-2.54059	
-2.53906	
-2.53448	
-2.53906	
-2.53906	
-2.53296	
-2.53448	
-2.53448	
-2.53601	
-2.53143	
-2.53448	
-2.53448	
-2.53448	
-2.53601	
-2.53906	
-2.53601	
-2.53296	
-2.53448	
-2.53906	
-2.53906	
-2.54059	
-2.53906	
-2.53601	
-2.53296	
-2.53143	
-2.53143	
-2.53296	
-2.53448	
-2.53143	
-2.53143	
-2.53296	
-2.53448	
-2.53448	
-2.53601	
-2.53906	
-2.53143	
-2.53296	
-2.53296	
-2.53448	
-2.53143	
-2.53143	
-2.53143	
-2.53143	
-2.53296	
-2.53143	
-2.53143	
-2.52991	
-2.53143	
-2.53296	
-2.53143	
-2.53448	
-2.52991	
-2.53143	
-2.52991	
-2.52991	
-2.52991	
-2.52991	
-2.52991	
-2.53143	
-2.53143	
-2.52991	
-2.53143	
-2.53143	
-2.53296	
-2.53296	
-2.53448	
-2.53143	
-2.53296	
-2.53143	
-2.52991	
-2.53143	
-2.52838	
-2.52838	
-2.52991	
-2.52838	
-2.52686	
-2.52838	
-2.52686	
-2.52533	
-2.52686	
-2.52838	
-2.53143	
-2.52838	
-2.52533	
-2.52686	
-2.52686	
-2.52686	
-2.52838	
-2.52686	
-2.52533	
-2.5238	
-2.52686	
-2.5238	
-2.5238	
-2.5238	
-2.52686	
-2.52533	
-2.52533	
-2.52991	
-2.52838	
-2.52533	
-2.52533	
-2.52686	
-2.5238	
-2.52533	
-2.52533	
-2.5238	
-2.52228	
-2.5238	
-2.5238	
-2.52533	
-2.52991	
-2.5238	
-2.5238	
-2.52533	
-2.52686	
-2.52686	
-2.5238	
-2.5238	
-2.52533	
-2.52686	
-2.52228	
-2.52228	
-2.52228	
-2.51923	
-2.52228	
-2.52228	
-2.52228	
-2.52228	
-2.52228	
-2.5238	
-2.52228	
-2.52533	
-2.5238	
-2.5238	
-2.52228	
-2.52533	
-2.52533	
-2.5238	
-2.52228	
-2.52228	
-2.5177	
-2.51923	
-2.51923	
-2.52075	
-2.51923	
-2.5238	
-2.52075	
-2.52228	
-2.5238	
-2.52228	
-2.52228	
-2.5238	
-2.52228	
-2.52533	
-2.52228	
-2.51923	
-2.51923	
-2.52075	
-2.51617	
-2.51923	
-2.52075	
-2.52075	
-2.52228	
-2.52228	
-2.52228	
-2.52075	
-2.51923	
-2.52228	
-2.5238	
-2.52228	
-2.52075	
-2.51923	
-2.51617	
-2.5177	
-2.51923	
-2.5177	
-2.51923	
-2.51923	
-2.51923	
-2.5177	
-2.52075	
-2.51923	
-2.5238	
-2.5177	
-2.52075	
-2.52075	
-2.51923	
-2.52075	
-2.5177	
-2.51617	
-2.51617	
-2.51923	
-2.51465	
-2.51617	
-2.51465	
-2.51617	
-2.51465	
-2.51617	
-2.5177	
-2.5177	
-2.51465	
-2.5177	
-2.51617	
-2.51465	
-2.51465	
-2.51312	
-2.5116	
-2.51617	
-2.51312	
-2.5116	
-2.51312	
-2.51465	
-2.51312	
-2.51465	
-2.51465	
-2.51465	
-2.51617	
-2.51617	
-2.51617	
-2.5177	
-2.51465	
-2.5116	
-2.51007	
-2.5116	
-2.50854	
-2.51007	
-2.50397	
-2.51312	
-2.50549	
-2.50854	
-2.5116	
-2.51312	
-2.51007	
-2.51312	
-2.50854	
-2.51007	
-2.5116	
-2.50854	
-2.50854	
-2.50854	
-2.50549	
-2.50854	
-2.50854	
-2.50397	
-2.50854	
-2.50549	
-2.50854	
-2.50854	
-2.50549	
-2.5116	
-2.5116	
-2.51465	
-2.5116	
-2.51465	
-2.5116	
-2.51007	
-2.51312	
-2.51465	
-2.5116	
-2.51312	
-2.51465	
-2.51617	
-2.51465	
-2.5177	
-2.5238	
-2.51923	
-2.52075	
-2.51923	
-2.52228	
-2.52075	
-2.51617	
-2.51617	
-2.51617	
-2.5177	
-2.51465	
-2.51465	
-2.51007	
-2.51312	
-2.51312	
-2.5116	
-2.51617	
-2.51465	
-2.51312	
-2.5116	
-2.5116	
-2.51007	
-2.5116	
-2.51465	
-2.5116	
-2.51007	
-2.5116	
-2.5116	
-2.50854	
-2.51007	
-2.50397	
-2.50549	
-2.5116	
-2.5116	
-2.5116	
-2.50397	
-2.50854	
-2.51007	
-2.5116	
-2.50397	
-2.50092	
-2.50244	
-2.49939	
-2.50549	
-2.50397	
-2.50244	
-2.50397	
-2.50397	
-2.50549	
-2.50549	
-2.51007	
-2.50549	
-2.50549	
-2.50854	
-2.50549	
-2.50549	
-2.50092	
-2.50244	
-2.50244	
-2.50244	
-2.50092	
-2.49939	
-2.50092	
-2.50092	
-2.50397	
-2.50092	
-2.50397	
-2.50397	
-2.50244	
-2.50092	
-2.50397	
-2.50244	
-2.50092	
-2.50092	
-2.50244	
-2.50244	
-2.50092	
-2.50092	
-2.49939	
-2.50244	
-2.50244	
-2.49786	
-2.50244	
-2.50397	
-2.50397	
-2.49939	
-2.50244	
-2.50092	
-2.49939	
-2.50092	
-2.50092	
-2.49786	
-2.49786	
-2.49939	
-2.49786	
-2.49786	
-2.50244	
-2.50092	
-2.49786	
-2.49939	
-2.50244	
-2.50244	
-2.50092	
-2.50244	
-2.50092	
-2.50092	
-2.50244	
-2.50092	
-2.49786	
-2.49786	
-2.49939	
-2.49939	
-2.49786	
-2.49939	
-2.50244	
-2.49939	
-2.50397	
-2.50244	
-2.49939	
-2.49939	
-2.49939	
-2.49939	
-2.49939	
-2.49939	
-2.49786	
-2.49634	
-2.49939	
-2.49786	
-2.49634	
-2.49939	
-2.49786	
-2.49634	
-2.50397	
-2.49939	
-2.50092	
-2.50244	
-2.49786	
-2.49939	
-2.49939	
-2.49634	
-2.49786	
-2.49786	
-2.49481	
-2.49939	
-2.49481	
-2.49939	
-2.49939	
-2.49634	
-2.49786	
-2.49939	
-2.49939	
-2.49786	
-2.50092	
-2.49939	
-2.50092	
-2.49939	
-2.49939	
-2.49786	
-2.49634	
-2.49176	
-2.49481	
-2.49634	
-2.49786	
-2.49786	
-2.49634	
-2.49634	
-2.49786	
-2.49939	
-2.49939	
-2.49939	
-2.49634	
-2.49481	
-2.49481	
-2.49634	
-2.49176	
-2.49329	
-2.49329	
-2.49939	
-2.49176	
-2.49634	
-2.49481	
-2.49023	
-2.49939	
-2.49939	
-2.49939	
-2.49939	
-2.49634	
-2.49329	
-2.49329	
-2.49634	
-2.49634	
-2.49481	
-2.49481	
-2.49329	
-2.49634	
-2.49176	
-2.49481	
-2.49329	
-2.49329	
-2.49786	
-2.49634	
-2.49481	
-2.49329	
-2.49939	
-2.49176	
-2.49634	
-2.49481	
-2.49176	
-2.49023	
-2.49023	
-2.49176	
-2.49481	
-2.49023	
-2.49329	
-2.49329	
-2.49023	
-2.49329	
-2.49176	
-2.49329	
-2.49329	
-2.49176	
-2.49329	
-2.49634	
-2.49634	
-2.48871	
-2.49329	
-2.49176	
-2.49481	
-2.49176	
-2.49329	
-2.49329	
-2.49023	
-2.49176	
-2.49481	
-2.49176	
-2.49023	
-2.49023	
-2.49176	
-2.49176	
-2.49176	
-2.49023	
-2.48871	
-2.48871	
-2.49023	
-2.48566	
-2.48566	
-2.48718	
-2.49023	
-2.48413	
-2.48718	
-2.49176	
-2.49023	
-2.48871	
-2.49176	
-2.49023	
-2.48566	
-2.48871	
-2.48566	
-2.4826	
-2.48718	
-2.48566	
-2.48718	
-2.48871	
-2.48718	
-2.48566	
-2.48871	
-2.48718	
-2.48871	
-2.4826	
-2.48718	
-2.48566	
-2.48413	
-2.48566	
-2.48718	
-2.48108	
-2.48413	
-2.48413	
-2.48413	
-2.48108	
-2.48566	
-2.48718	
-2.48413	
-2.48566	
-2.48566	
-2.48413	
-2.48566	
-2.48566	
-2.48566	
-2.48718	
-2.48566	
-2.48566	
-2.48108	
-2.48108	
-2.48566	
-2.48413	
-2.4826	
-2.4826	
-2.4826	
-2.4826	
-2.48566	
-2.48566	
-2.48718	
-2.48718	
-2.48566	
-2.48413	
-2.48566	
-2.48108	
-2.48108	
-2.47955	
-2.48566	
-2.4826	
-2.48413	
-2.4826	
-2.4826	
-2.48413	
-2.48566	
-2.4826	
-2.48413	
-2.4826	
-2.48566	
-2.48718	
-2.48566	
-2.48566	
-2.48566	
-2.48413	
-2.4826	
-2.48566	
-2.47955	
-2.4826	
-2.48413	
-2.48108	
-2.47955	
-2.48108	
-2.48108	
-2.4826	
-2.48413	
-2.48108	
-2.48108	
-2.47955	
-2.47955	
-2.47803	
-2.4765	
-2.47955	
-2.48108	
-2.47803	
-2.47345	
-2.4765	
-2.47345	
-2.47955	
-2.47955	
-2.47955	
-2.4826	
-2.48108	
-2.47955	
-2.4826	
-2.48413	
-2.48566	
-2.47955	
-2.48108	
-2.47955	
-2.47803	
-2.47955	
-2.4765	
-2.48108	
-2.47955	
-2.48108	
-2.47955	
-2.47803	
-2.48108	
-2.48108	
-2.47803	
-2.47803	
-2.47955	
-2.48108	
-2.47803	
-2.47345	
-2.47192	
-2.47345	
-2.47192	
-2.47345	
-2.47955	
-2.47345	
-2.47803	
-2.4765	
-2.47803	
-2.4765	
-2.47803	
-2.47955	
-2.4765	
-2.47803	
-2.47192	
-2.4765	
-2.4765	
-2.47803	
-2.47192	
-2.47803	
-2.47345	
-2.47345	
-2.4765	
-2.4765	
-2.48108	
-2.48108	
-2.47955	
-2.4765	
-2.47345	
-2.4765	
-2.47345	
-2.47192	
-2.47192	
-2.47192	
-2.4704	
-2.4765	
-2.4765	
-2.47803	
-2.4765	
-2.4826	
-2.4826	
-2.48566	
-2.48108	
-2.48108	
-2.48108	
-2.47803	
-2.48108	
-2.48108	
-2.47955	
-2.47345	
-2.4765	
-2.48108	
-2.49176	
-2.50092	
-2.49939	
-2.48566	
-2.48108	
-2.4826	
-2.48413	
-2.48566	
-2.49634	
-2.50244	
-2.50549	
-2.49786	
-2.48108	
-2.46582	
-2.46277	
-2.45667	
-2.43225	
-2.4292	
-2.43073	
-2.42004	
-2.42767	
-2.42767	
-2.4353	
-2.45209	
-2.46735	
-2.4704	
-2.47803	
-2.48566	
-2.49023	
-2.48718	
-2.50549	
-2.51617	
-2.50549	
-2.49329	
-2.48871	
-2.48718	
-2.48108	
-2.47955	
-2.48108	
-2.4704	
-2.46735	
-2.47192	
-2.46582	
-2.46582	
-2.47192	
-2.48413	
-2.48413	
-2.48108	
-2.46887	
-2.45972	
-2.45514	
-2.45209	
-2.45361	
-2.45514	
-2.45361	
-2.45361	
-2.45056	
-2.45819	
-2.45361	
-2.45056	
-2.45514	
-2.45361	
-2.45361	
-2.44598	
-2.4353	
-2.42157	
-2.40326	
-2.40326	
-2.41394	
-2.42615	
-2.4353	
-2.44141	
-2.43073	
-2.4231	
-2.41547	
-2.41547	
-2.4231	
-2.43988	
-2.46124	
-2.46277	
-2.45514	
-2.45667	
-2.45514	
-2.46735	
-2.48413	
-2.48413	
-2.4704	
-2.45972	
-2.46124	
-2.45361	
-2.4231	
-2.40326	
-2.38342	
-2.38495	
-2.38495	
-2.38495	
-2.39105	
-2.39716	
-2.41547	
-2.43073	
-2.43835	
-2.45361	
-2.46735	
-2.47192	
-2.4826	
-2.49634	
-2.51312	
-2.50397	
-2.49023	
-2.48718	
-2.48413	
-2.4765	
-2.42462	
-2.38342	
-2.37122	
-2.36511	
-2.34528	
-2.27356	
-2.23541	
-2.23999	
-2.26746	
-2.29797	
-2.33154	
-2.37885	
-2.42767	
-2.45667	
-2.4704	
-2.48413	
-2.5116	
-2.52228	
-2.47192	
-2.40173	
-2.37274	
-2.35596	
-2.36511	
-2.36664	
-2.36816	
-2.36511	
-2.32086	
-2.31323	
-2.31171	
-2.31934	
-2.33612	
-2.3407	
-2.23236	
-2.17896	
-2.13928	
-2.14844	
-2.20184	
-2.27203	
-2.28882	
-2.27966	
-2.27203	
-2.22473	
-2.23541	
-2.30103	
-2.35901	
-2.40173	
-2.41852	
-2.4292	
-2.42462	
-2.41241	
-2.45209	
-2.45819	
-2.43378	
-2.42615	
-2.43378	
-2.38342	
-2.32391	
-2.32849	
-2.33765	
-2.33765	
-2.31476	
-2.29492	
-2.31476	
-2.31476	
-2.2934	
-2.25983	
-2.22626	
-2.1286	
-2.07672	
-2.09198	
-2.0874	
-2.1225	
-2.15302	
-2.20032	
-2.22321	
-2.26135	
-2.31018	
-2.40021	
-2.50854	
-2.58484	
-2.60925	
-2.58484	
-2.51923	
-2.40173	
-2.19879	
-2.0752	
-2.02026	
-1.9165	
-1.81427	
-1.88141	
-1.9455	
-1.91345	
-1.89667	
-1.96228	
-2.10724	
-2.15912	
-2.22626	
-2.36206	
-2.45972	
-2.48871	
-2.45514	
-2.50397	
-2.55585	
-2.40936	
-2.32239	
-2.23846	
-2.10876	
-1.88141	
-1.76697	
-1.78375	
-1.81885	
-1.9165	
-1.86005	
-1.84784	
-1.89362	
-2.03857	
-2.15302	
-2.23541	
-2.33917	
-2.44446	
-2.50244	
-2.58789	
-2.69318	
-2.77863	
-2.85797	
-2.9541	
-2.95258	
-2.85339	
-2.76642	
-2.7298	
-2.67487	
-2.50854	
-2.38647	
-2.31476	
-2.25983	
-2.23541	
-2.18353	
-2.18506	
-2.16675	
-2.19574	
-2.23694	
-2.36511	
-2.46124	
-2.49329	
-2.47955	
-2.30865	
-2.23389	
-2.18811	
-2.20184	
-2.21863	
-2.18811	
-2.16522	
-2.10571	
-2.03705	
-2.05078	
-2.09503	
-2.11792	
-2.11792	
-2.1698	
-2.23083	
-2.30408	
-2.31476	
-2.37427	
-2.41699	
-2.43225	
-2.42004	
-2.43988	
-2.45514	
-2.51007	
-2.51312	
-2.5177	
-2.52686	
-2.52991	
-2.49329	
-2.45209	
-2.38495	
-2.36206	
-2.3468	
-2.34985	
-2.35443	
-2.32544	
-2.27966	
-2.27356	
-2.30103	
-2.27814	
-2.24762	
-2.25067	
-2.1759	
-2.17133	
-2.1698	
-2.1759	
-2.21405	
-2.2049	
-2.22626	
-2.23846	
-2.26135	
-2.2934	
-2.31781	
-2.33307	
-2.35748	
-2.41852	
-2.44446	
-2.35901	
-2.27661	
-2.26135	
-2.23999	
-2.22321	
-2.21252	
-2.18353	
-2.16675	
-2.17896	
-2.18506	
-2.17285	
-2.19421	
-2.16522	
-2.18353	
-2.28271	
-2.34528	
-2.36816	
-2.37122	
-2.39716	
-2.40021	
-2.39868	
-2.40631	
-2.3941	
-2.38953	
-2.36969	
-2.35596	
-2.3407	
-2.33917	
-2.32849	
-2.30865	
-2.27814	
-2.25525	
-2.25525	
-2.27051	
-2.25525	
-2.24915	
-2.2934	
-2.28271	
-2.27356	
-2.25525	
-2.24915	
-2.27203	
-2.28882	
-2.30408	
-2.31171	
-2.32849	
-2.30408	
-2.29492	
-2.27814	
-2.27051	
-2.27661	
-2.27356	
-2.27814	
-2.2934	
-2.28577	
-2.2583	
-2.22626	
-2.20795	
-2.2049	
-2.20642	
-2.22778	
-2.27966	
-2.26288	
-2.25525	
-2.23541	
-2.23846	
-2.27661	
-2.3056	
-2.31323	
-2.28271	
-2.26135	
-2.26288	
-2.24304	
-2.21863	
-2.18811	
-2.15454	
-2.14691	
-2.09808	
-2.09656	
-2.10876	
-2.12708	
-2.10419	
-2.05383	
-2.07062	
-2.09503	
-2.09045	
-2.10571	
-2.19727	
-2.24762	
-2.21863	
-2.20337	
-2.17743	
-2.17438	
-2.1698	
-2.18658	
-2.20337	
-2.20947	
-2.19116	
-2.1698	
-2.15149	
-2.1286	
-2.09503	
-2.09045	
-2.11639	
-2.11487	
-2.13013	
-2.11792	
-2.1286	
-2.14386	
-2.15302	
-2.14539	
-2.1286	
-2.10724	
-2.08282	
-2.0752	
-2.09503	
-2.10571	
-2.10266	
-2.10266	
-2.13318	
-2.13013	
-2.13776	
-2.15454	
-2.19421	
-2.20947	
-2.16064	
-2.16064	
-2.16522	
-2.16217	
-2.12708	
-2.08282	
-2.03705	
-2.01874	
-1.98212	
-2.01111	
-2.11334	
-2.17896	
-2.19879	
-2.1698	
-2.14996	
-2.18048	
-2.17438	
-2.18658	
-2.18506	
-2.16217	
-2.14996	
-2.14386	
-2.17133	
-2.13776	
-2.08588	
-2.10419	
-2.16675	
-2.18201	
-2.16217	
-2.16827	
-2.17285	
-2.17896	
-2.14233	
-2.12708	
-2.15607	
-2.15607	
-2.18201	
-2.14844	
-2.13623	
-2.17285	
-2.20032	
-2.18353	
-2.17743	
-2.18811	
-2.18048	
-2.23846	
-2.21252	
-2.22321	
-2.26135	
-2.22626	
-2.18048	
-2.10876	
-2.16064	
-2.16675	
-2.09961	
-2.08893	
-2.09503	
-2.0813	
-2.05688	
-2.14844	
-2.1759	
-2.19116	
-2.30103	
-2.39258	
-2.36969	
-2.35443	
-2.32544	
-2.29645	
-2.23846	
-2.24304	
-2.15607	
-2.1286	
-2.14539	
-2.10876	
-2.08435	
-2.0813	
-2.09656	
-2.13318	
-2.14233	
-2.19269	
-2.18201	
-2.19727	
-2.211	
-2.18811	
-2.17133	
-2.19421	
-2.24304	
-2.20337	
-2.11792	
-2.09045	
-2.13165	
-2.19727	
-2.1698	
-2.07367	
-2.07062	
-2.1225	
-2.15912	
-2.18048	
-2.24457	
-2.40479	
-2.40021	
-2.32239	
-2.28119	
-2.23694	
-2.03857	
-1.96381	
-2.00653	
-2.00348	
-2.10114	
-2.31476	
-2.40936	
-2.45209	
-2.43683	
-2.47192	
-2.43378	
-2.39105	
-2.37427	
-2.36511	
-2.40021	
-2.3819	
-2.32697	
-2.27966	
-2.24304	
-2.25677	
-2.27509	
-2.24304	
-2.25983	
-2.11334	
-2.02179	
-2.00348	
-1.94092	
-1.9104	
-2.10724	
-2.19727	
-2.1286	
-2.26288	
-2.33917	
-2.38342	
-2.4704	
-2.45514	
-2.3407	
-2.31323	
-2.31323	
-2.33612	
-2.40479	
-2.43683	
-2.36359	
-2.30865	
-2.20337	
-2.17438	
-2.20642	
-2.35748	
-2.37732	
-2.53601	
-2.5589	
-2.51007	
-2.45361	
-2.3819	
-2.27814	
-2.19574	
-2.13623	
-2.10266	
-2.20642	
-2.25677	
-2.29797	
-2.32086	
-2.36053	
-2.3056	
-2.41394	
-2.41241	
-2.42157	
-2.46429	
-2.48566	
-2.45209	
-2.46124	
-2.46277	
-2.43073	
-2.41241	
-2.38953	
-2.27509	
-2.21405	
-2.23846	
-2.24609	
-2.32391	
-2.33459	
-2.23694	
-2.18201	
-2.13318	
-2.24457	
-2.3056	
-2.33765	
-2.54059	
-2.62756	
-2.5177	
-2.40936	
-2.43225	
-2.48718	
-2.5589	
-2.54059	
-2.44446	
-2.40479	
-2.3819	
-2.34222	
-2.36206	
-2.40479	
-2.39105	
-2.43988	
-2.41547	
-2.43378	
-2.4765	
-2.49634	
-2.45514	
-2.46735	
-2.45819	
-2.40936	
-2.38647	
-2.45819	
-2.50397	
-2.59247	
-2.56805	
-2.54517	
-2.51007	
-2.45819	
-2.45056	
-2.42767	
-2.40936	
-2.41699	
-2.40784	
-2.46277	
-2.47192	
-2.44751	
-2.49329	
-2.46277	
-2.47803	
-2.54822	
-2.58484	
-2.6001	
-2.71912	
-2.68555	
-2.60468	
-2.48566	
-2.37122	
-2.25677	
-2.27051	
-2.33917	
-2.48108	
-2.61993	
-2.66724	
-2.53296	
-2.49939	
-2.51312	
-2.54974	
-2.60773	
-2.57568	
-2.56348	
-2.54517	
-2.6062	
-2.59094	
-2.54669	
-2.57874	
-2.59094	
-2.58331	
-2.54059	
-2.54364	
-2.55737	
-2.59705	
-2.58331	
-2.5589	
-2.55432	
-2.56042	
-2.55737	
-2.57874	
-2.67487	
-2.73132	
-2.70844	
-2.62604	
-2.57874	
-2.56195	
-2.56348	
-2.57721	
-2.61993	
-2.67487	
-2.6947	
-2.67792	
-2.64587	
-2.62756	
-2.61688	
-2.66113	
-2.64893	
-2.58026	
-2.53296	
-2.55127	
-2.5589	
-2.53143	
-2.59857	
-2.60925	
-2.67487	
-2.72369	
-2.74506	
-2.7832	
-2.73743	
-2.742	
-2.70538	
-2.64893	
-2.70996	
-2.80609	
-2.80304	
-2.80304	
-2.79694	
-2.76337	
-2.72064	
-2.72522	
-2.6886	
-2.62756	
-2.67792	
-2.72217	
-2.70538	
-2.64587	
-2.61078	
-2.61536	
-2.65045	
-2.67944	
-2.76337	
-2.74506	
-2.62146	
-2.58179	
-2.61078	
-2.64282	
-2.80762	
-2.76947	
-2.78473	
-2.7771	
-2.78168	
-2.80914	
-2.78931	
-2.73438	
-2.71301	
-2.76794	
-2.81677	
-2.78473	
-2.79388	
-2.74506	
-2.76489	
-2.76489	
-2.73895	
-2.79999	
-2.83966	
-2.82288	
-2.76794	
-2.74658	
-2.70691	
-2.76184	
-2.84119	
-2.80457	
-2.78473	
-2.771	
-2.80151	
-2.83356	
-2.80457	
-2.76184	
-2.771	
-2.83661	
-2.85797	
-2.87933	
-2.76642	
-2.6886	
-2.70081	
-2.66876	
-2.78015	
-2.99988	
-2.96783	
-2.90833	
-2.95563	
-3.07617	
-2.97699	
-2.83661	
-2.76337	
-2.68707	
-2.62604	
-2.80151	
-2.6535	
-2.61078	
-2.54517	
-2.70996	
-2.7832	
-3.05786	
-3.20587	
-3.22876	
-3.3371	
-3.27759	
-3.1601	
-3.03955	
-3.00446	
-3.02277	
-3.08838	
-3.10669	
-3.04871	
-2.99377	
-2.90833	
-2.87933	
-2.82288	
-2.80304	
-2.89307	
-2.93884	
-2.82745	
-2.87476	
-2.96783	
-2.99835	
-3.01056	
-2.96173	
-2.95868	
-3.00903	
-2.97546	
-2.96631	
-3.03955	
-2.97241	
-2.96021	
-2.93121	
-2.92511	
-2.92664	
-2.95563	
-2.9892	
-2.93274	
-2.948	
-2.82135	
-2.76947	
-2.76337	
-2.83813	
-2.94647	
-3.10516	
-3.24707	
-3.09296	
-3.01819	
-3.00598	
-2.96021	
-2.94189	
-3.05176	
-3.03955	
-3.07007	
-3.125	
-3.11737	
-3.09143	
-3.14941	
-3.08075	
-3.04413	
-2.97852	
-2.94037	
-2.97852	
-3.01514	
-3.08838	
-3.1189	
-3.04108	
-3.03345	
-3.11432	
-3.22876	
-3.40881	
-3.43628	
-3.3371	
-3.28217	
-3.24097	
-3.15247	
-3.03192	
-2.94495	
-2.98462	
-3.04718	
-3.10364	
-3.23334	
-3.35236	
-3.38135	
-3.34015	
-3.26691	
-3.1662	
-3.06396	
-2.9129	
-2.85645	
-2.83813	
-2.99072	
-3.33557	
-3.46222	
-3.42407	
-3.3783	
-3.36151	
-3.33862	
-3.33557	
-3.32336	
-3.3432	
-3.37982	
-3.35693	
-3.36151	
-3.42712	
-3.35846	
-3.32031	
-3.24402	
-3.19824	
-3.21045	
-3.30353	
-3.49426	
-3.48358	
-3.40424	
-3.36151	
-3.39355	
-3.48053	
-3.55225	
-3.479	
-3.36151	
-3.35388	
-3.37982	
-3.36914	
-3.43475	
-3.43628	
-3.46375	
-3.52936	
-3.49884	
-3.49731	
-3.49121	
-3.42712	
-3.42712	
-3.41644	
-3.46222	
-3.52325	
-3.51257	
-3.56445	
-3.58887	
-3.57513	
-3.6026	
-3.60718	
-3.62854	
-3.63464	
-3.6087	
-3.62701	
-3.62701	
-3.66058	
-3.66211	
-3.71094	
-3.72467	
-3.685	
-3.59955	
-3.53088	
-3.5614	
-3.56445	
-3.59192	
-3.67889	
-3.70331	
-3.74908	
-3.78723	
-3.7796	
-3.80096	
-3.91235	
-3.85895	
-3.81165	
-3.8208	
-3.83148	
-3.71399	
-3.66058	
-3.70789	
-3.8147	
-3.91541	
-4.01459	
-4.0451	
-4.05426	
-4.03748	
-4.02069	
-3.99017	
-3.98102	
-3.98712	
-4.02527	
-4.04663	
-4.08173	
-4.10156	
-4.10004	
-4.12903	
-4.13666	
-4.15192	
-4.14429	
-4.14581	
-4.1275	
-4.11682	
-4.19312	
-4.31824	
-4.39453	
-4.48761	
-4.49219	
-4.5105	
-4.49219	
-4.5639	
-4.6463	
-4.64325	
-4.56085	
-4.4693	
-4.41742	
-4.42505	
-4.54407	
-4.53339	
-4.45557	
-4.41132	
-4.40521	
-4.44031	
-4.4693	
-4.49066	
-4.53339	
-4.55933	
-4.65546	
-4.70581	
-4.70581	
-4.68597	
-4.66156	
-4.63715	
-4.61578	
-4.63562	
-4.65851	
-4.73785	
-4.79431	
-4.74701	
-4.72107	
-4.68903	
-4.74854	
-4.75159	
-4.79126	
-4.8645	
-4.88434	
-5.02472	
-4.99878	
-4.97284	
-4.96368	
-4.97742	
-5.01556	
-5.11932	
-5.14679	
-5.11169	
-5.14221	
-5.18036	
-5.21698	
-5.29633	
-5.31006	
-5.31769	
-5.30548	
-5.27344	
-5.25208	
-5.30701	
-5.36499	
-5.36652	
-5.40466	
-5.45349	
-5.49164	
-5.47791	
-5.46875	
-5.48096	
-5.54199	
-5.6076	
-5.72662	
-5.8197	
-5.78613	
-5.7312	
-5.75867	
-5.81207	
-5.9021	
-6.06842	
-6.18134	
-6.18439	
-6.17065	
-6.19354	
-6.21948	
-6.20117	
-6.24084	
-6.27899	
-6.28815	
-6.2851	
-6.31561	
-6.30493	
-6.34155	
-6.35834	
-6.41937	
-6.49414	
-6.5155	
-6.5155	
-6.52466	
-6.56738	
-6.57806	
-6.59943	
-6.59637	
-6.5918	
-6.60553	
-6.70776	
-6.72607	
-6.74438	
-6.79474	
-6.8161	
-6.84204	
-6.8573	
-6.80389	
-6.8161	
-6.8161	
-6.82831	
-6.94885	
-6.93512	
-6.95038	
-6.97174	
-6.96716	
-6.97327	
-6.987	
-6.99921	
-6.99158	
-7.01599	
-7.07855	
-7.13043	
-7.13196	
-7.17316	
-7.16248	
-7.13959	
-7.13043	
-7.13501	
-7.14264	
-7.13654	
-7.17163	
-7.22961	
-7.18231	
-7.17468	
-7.22656	
-7.23572	
-7.13501	
-7.0816	
-7.13959	
-7.16553	
-7.31201	
-7.42645	
-7.27692	
-7.26929	
-7.27234	
-7.30438	
-7.25861	
-7.19299	
-7.18842	
-7.19604	
-7.19452	
